# Model replicates Starrett & Saumon 2014 'A simple method for determining the ionic structure of warm dense matter'
# Convergence: Err(φ)=5.938e-11, Err(n_e)=6.609e-12, Err(IET)=9.983e-13, Q_net=-9.119e-10
# {"name":"CS2014_Al", "Z":13, "Zstar":2.871438230402648, "A":26.981539,  "μ[AU]": 2.8906868308e-01, "Te[AU]": 3.675e-02, "Ti[AU]": 3.675e-02, "rs[AU]": 2.990e+00 }
   r[AU]           ne_full[AU]     n_ion[AU]       ne_ext[AU]      ne_PA[AU]       ne_scr[AU]      
   1.000000e-04    4.483061e+06    4.483046e+06    1.652387e-03    4.483061e+06    1.535836e+01
   1.006327e-04    4.440858e+06    4.440841e+06    1.652387e-03    4.440858e+06    1.694600e+01
   1.012694e-04    4.399050e+06    4.399032e+06    1.652387e-03    4.399050e+06    1.792839e+01
   1.019102e-04    4.357636e+06    4.357618e+06    1.652387e-03    4.357636e+06    1.823480e+01
   1.025550e-04    4.316611e+06    4.316593e+06    1.652387e-03    4.316611e+06    1.787708e+01
   1.032039e-04    4.275971e+06    4.275955e+06    1.652387e-03    4.275971e+06    1.684111e+01
   1.038569e-04    4.235714e+06    4.235699e+06    1.652387e-03    4.235714e+06    1.575317e+01
   1.045140e-04    4.195838e+06    4.195821e+06    1.652387e-03    4.195838e+06    1.645282e+01
   1.051753e-04    4.156337e+06    4.156320e+06    1.652387e-03    4.156337e+06    1.745331e+01
   1.058408e-04    4.117208e+06    4.117190e+06    1.652387e-03    4.117208e+06    1.780657e+01
   1.065104e-04    4.078446e+06    4.078429e+06    1.652387e-03    4.078446e+06    1.745402e+01
   1.071843e-04    4.040049e+06    4.040032e+06    1.652387e-03    4.040049e+06    1.649709e+01
   1.078625e-04    4.002012e+06    4.001997e+06    1.652387e-03    4.002012e+06    1.523278e+01
   1.085450e-04    3.964336e+06    3.964320e+06    1.652387e-03    3.964336e+06    1.602164e+01
   1.092318e-04    3.927015e+06    3.926998e+06    1.652387e-03    3.927015e+06    1.698568e+01
   1.099229e-04    3.890044e+06    3.890027e+06    1.652387e-03    3.890044e+06    1.730580e+01
   1.106184e-04    3.853421e+06    3.853404e+06    1.652387e-03    3.853421e+06    1.703830e+01
   1.113183e-04    3.817142e+06    3.817126e+06    1.652387e-03    3.817142e+06    1.619898e+01
   1.120226e-04    3.781204e+06    3.781189e+06    1.652387e-03    3.781204e+06    1.484514e+01
   1.127314e-04    3.745606e+06    3.745590e+06    1.652387e-03    3.745606e+06    1.555462e+01
   1.134447e-04    3.710344e+06    3.710327e+06    1.652387e-03    3.710344e+06    1.649260e+01
   1.141625e-04    3.675413e+06    3.675396e+06    1.652387e-03    3.675413e+06    1.686300e+01
   1.148848e-04    3.640810e+06    3.640793e+06    1.652387e-03    3.640810e+06    1.667484e+01
   1.156117e-04    3.606532e+06    3.606517e+06    1.652387e-03    3.606532e+06    1.589863e+01
   1.163432e-04    3.572577e+06    3.572562e+06    1.652387e-03    3.572577e+06    1.485350e+01
   1.170794e-04    3.538943e+06    3.538928e+06    1.652387e-03    3.538943e+06    1.511195e+01
   1.178201e-04    3.505626e+06    3.505610e+06    1.652387e-03    3.505626e+06    1.606531e+01
   1.185656e-04    3.472622e+06    3.472606e+06    1.652387e-03    3.472622e+06    1.646580e+01
   1.193158e-04    3.439929e+06    3.439912e+06    1.652387e-03    3.439929e+06    1.626953e+01
   1.200707e-04    3.407542e+06    3.407527e+06    1.652387e-03    3.407542e+06    1.556707e+01
   1.208304e-04    3.375460e+06    3.375446e+06    1.652387e-03    3.375460e+06    1.436854e+01
   1.215950e-04    3.343682e+06    3.343667e+06    1.652387e-03    3.343682e+06    1.475606e+01
   1.223643e-04    3.312203e+06    3.312187e+06    1.652387e-03    3.312203e+06    1.563896e+01
   1.231385e-04    3.281020e+06    3.281004e+06    1.652387e-03    3.281020e+06    1.600968e+01
   1.239177e-04    3.250130e+06    3.250114e+06    1.652387e-03    3.250130e+06    1.588454e+01
   1.247017e-04    3.219530e+06    3.219515e+06    1.652387e-03    3.219530e+06    1.527799e+01
   1.254907e-04    3.189218e+06    3.189204e+06    1.652387e-03    3.189218e+06    1.423516e+01
   1.262847e-04    3.159193e+06    3.159178e+06    1.652387e-03    3.159193e+06    1.430900e+01
   1.270838e-04    3.129451e+06    3.129435e+06    1.652387e-03    3.129451e+06    1.519935e+01
   1.278879e-04    3.099988e+06    3.099972e+06    1.652387e-03    3.099988e+06    1.560766e+01
   1.286970e-04    3.070802e+06    3.070787e+06    1.652387e-03    3.070802e+06    1.554584e+01
   1.295113e-04    3.041891e+06    3.041876e+06    1.652387e-03    3.041891e+06    1.497506e+01
   1.303308e-04    3.013251e+06    3.013237e+06    1.652387e-03    3.013251e+06    1.395529e+01
   1.311554e-04    2.984882e+06    2.984868e+06    1.652387e-03    2.984882e+06    1.391521e+01
   1.319852e-04    2.956781e+06    2.956766e+06    1.652387e-03    2.956781e+06    1.481381e+01
   1.328203e-04    2.928943e+06    2.928928e+06    1.652387e-03    2.928943e+06    1.523471e+01
   1.336607e-04    2.901368e+06    2.901353e+06    1.652387e-03    2.901368e+06    1.516033e+01
   1.345064e-04    2.874051e+06    2.874037e+06    1.652387e-03    2.874051e+06    1.465592e+01
   1.353575e-04    2.846992e+06    2.846978e+06    1.652387e-03    2.846992e+06    1.373082e+01
   1.362139e-04    2.820187e+06    2.820174e+06    1.652387e-03    2.820187e+06    1.362065e+01
   1.370758e-04    2.793637e+06    2.793622e+06    1.652387e-03    2.793637e+06    1.442016e+01
   1.379431e-04    2.767335e+06    2.767320e+06    1.652387e-03    2.767335e+06    1.482427e+01
   1.388159e-04    2.741281e+06    2.741266e+06    1.652387e-03    2.741281e+06    1.480467e+01
   1.396942e-04    2.715472e+06    2.715457e+06    1.652387e-03    2.715472e+06    1.437681e+01
   1.405780e-04    2.689905e+06    2.689891e+06    1.652387e-03    2.689905e+06    1.355662e+01
   1.414675e-04    2.664579e+06    2.664566e+06    1.652387e-03    2.664579e+06    1.319375e+01
   1.423626e-04    2.639493e+06    2.639479e+06    1.652387e-03    2.639493e+06    1.403071e+01
   1.432634e-04    2.614643e+06    2.614628e+06    1.652387e-03    2.614643e+06    1.445776e+01
   1.441698e-04    2.590026e+06    2.590011e+06    1.652387e-03    2.590026e+06    1.448471e+01
   1.450820e-04    2.565640e+06    2.565626e+06    1.652387e-03    2.565640e+06    1.408055e+01
   1.460000e-04    2.541484e+06    2.541471e+06    1.652387e-03    2.541484e+06    1.328914e+01
   1.469237e-04    2.517556e+06    2.517543e+06    1.652387e-03    2.517556e+06    1.303420e+01
   1.478534e-04    2.493853e+06    2.493840e+06    1.652387e-03    2.493853e+06    1.368190e+01
   1.487889e-04    2.470374e+06    2.470360e+06    1.652387e-03    2.470374e+06    1.411143e+01
   1.497303e-04    2.447115e+06    2.447101e+06    1.652387e-03    2.447115e+06    1.412595e+01
   1.506777e-04    2.424075e+06    2.424061e+06    1.652387e-03    2.424075e+06    1.377744e+01
   1.516310e-04    2.401251e+06    2.401238e+06    1.652387e-03    2.401251e+06    1.307156e+01
   1.525904e-04    2.378643e+06    2.378630e+06    1.652387e-03    2.378643e+06    1.257508e+01
   1.535559e-04    2.356248e+06    2.356235e+06    1.652387e-03    2.356248e+06    1.332388e+01
   1.545275e-04    2.334064e+06    2.334051e+06    1.652387e-03    2.334064e+06    1.373810e+01
   1.555052e-04    2.312089e+06    2.312075e+06    1.652387e-03    2.312089e+06    1.379598e+01
   1.564891e-04    2.290320e+06    2.290306e+06    1.652387e-03    2.290320e+06    1.350738e+01
   1.574792e-04    2.268755e+06    2.268743e+06    1.652387e-03    2.268755e+06    1.286437e+01
   1.584757e-04    2.247394e+06    2.247382e+06    1.652387e-03    2.247394e+06    1.233524e+01
   1.594784e-04    2.226235e+06    2.226222e+06    1.652387e-03    2.226235e+06    1.296962e+01
   1.604874e-04    2.205275e+06    2.205261e+06    1.652387e-03    2.205275e+06    1.340349e+01
   1.615028e-04    2.184512e+06    2.184498e+06    1.652387e-03    2.184512e+06    1.349755e+01
   1.625247e-04    2.163944e+06    2.163931e+06    1.652387e-03    2.163944e+06    1.322078e+01
   1.635530e-04    2.143569e+06    2.143556e+06    1.652387e-03    2.143569e+06    1.262088e+01
   1.645879e-04    2.123386e+06    2.123374e+06    1.652387e-03    2.123386e+06    1.219238e+01
   1.656293e-04    2.103394e+06    2.103382e+06    1.652387e-03    2.103394e+06    1.265332e+01
   1.666772e-04    2.083591e+06    2.083577e+06    1.652387e-03    2.083591e+06    1.308207e+01
   1.677318e-04    2.063973e+06    2.063960e+06    1.652387e-03    2.063973e+06    1.316221e+01
   1.687931e-04    2.044540e+06    2.044527e+06    1.652387e-03    2.044540e+06    1.293507e+01
   1.698611e-04    2.025289e+06    2.025276e+06    1.652387e-03    2.025289e+06    1.240697e+01
   1.709358e-04    2.006219e+06    2.006208e+06    1.652387e-03    2.006219e+06    1.161484e+01
   1.720174e-04    1.987330e+06    1.987318e+06    1.652387e-03    1.987330e+06    1.232851e+01
   1.731058e-04    1.968619e+06    1.968606e+06    1.652387e-03    1.968619e+06    1.274273e+01
   1.742010e-04    1.950084e+06    1.950071e+06    1.652387e-03    1.950084e+06    1.285627e+01
   1.753032e-04    1.931723e+06    1.931710e+06    1.652387e-03    1.931723e+06    1.267749e+01
   1.764124e-04    1.913534e+06    1.913522e+06    1.652387e-03    1.913534e+06    1.219202e+01
   1.775286e-04    1.895517e+06    1.895505e+06    1.652387e-03    1.895517e+06    1.169222e+01
   1.786519e-04    1.877670e+06    1.877658e+06    1.652387e-03    1.877670e+06    1.201019e+01
   1.797822e-04    1.859991e+06    1.859978e+06    1.652387e-03    1.859991e+06    1.243760e+01
   1.809198e-04    1.842478e+06    1.842465e+06    1.652387e-03    1.842478e+06    1.257930e+01
   1.820645e-04    1.825130e+06    1.825117e+06    1.652387e-03    1.825130e+06    1.240102e+01
   1.832164e-04    1.807945e+06    1.807933e+06    1.652387e-03    1.807945e+06    1.195587e+01
   1.843757e-04    1.790921e+06    1.790910e+06    1.652387e-03    1.790921e+06    1.139160e+01
   1.855423e-04    1.774059e+06    1.774047e+06    1.652387e-03    1.774059e+06    1.172373e+01
   1.867162e-04    1.757355e+06    1.757343e+06    1.652387e-03    1.757355e+06    1.213730e+01
   1.878976e-04    1.740809e+06    1.740796e+06    1.652387e-03    1.740809e+06    1.226683e+01
   1.890865e-04    1.724417e+06    1.724405e+06    1.652387e-03    1.724417e+06    1.213216e+01
   1.902829e-04    1.708180e+06    1.708169e+06    1.652387e-03    1.708180e+06    1.174422e+01
   1.914868e-04    1.692096e+06    1.692085e+06    1.652387e-03    1.692096e+06    1.111732e+01
   1.926984e-04    1.676164e+06    1.676152e+06    1.652387e-03    1.676164e+06    1.142378e+01
   1.939177e-04    1.660382e+06    1.660370e+06    1.652387e-03    1.660382e+06    1.183119e+01
   1.951446e-04    1.644748e+06    1.644736e+06    1.652387e-03    1.644748e+06    1.198261e+01
   1.963793e-04    1.629261e+06    1.629249e+06    1.652387e-03    1.629261e+06    1.188780e+01
   1.976219e-04    1.613920e+06    1.613908e+06    1.652387e-03    1.613920e+06    1.153017e+01
   1.988723e-04    1.598723e+06    1.598712e+06    1.652387e-03    1.598723e+06    1.104557e+01
   2.001306e-04    1.583670e+06    1.583658e+06    1.652387e-03    1.583670e+06    1.113597e+01
   2.013968e-04    1.568758e+06    1.568747e+06    1.652387e-03    1.568758e+06    1.155022e+01
   2.026711e-04    1.553987e+06    1.553975e+06    1.652387e-03    1.553987e+06    1.172158e+01
   2.039535e-04    1.539355e+06    1.539343e+06    1.652387e-03    1.539355e+06    1.162551e+01
   2.052439e-04    1.524860e+06    1.524848e+06    1.652387e-03    1.524860e+06    1.130242e+01
   2.065425e-04    1.510501e+06    1.510490e+06    1.652387e-03    1.510501e+06    1.075890e+01
   2.078494e-04    1.496278e+06    1.496267e+06    1.652387e-03    1.496278e+06    1.089022e+01
   2.091645e-04    1.482189e+06    1.482178e+06    1.652387e-03    1.482189e+06    1.127372e+01
   2.104879e-04    1.468233e+06    1.468222e+06    1.652387e-03    1.468233e+06    1.143396e+01
   2.118197e-04    1.454408e+06    1.454397e+06    1.652387e-03    1.454408e+06    1.137055e+01
   2.131599e-04    1.440713e+06    1.440702e+06    1.652387e-03    1.440713e+06    1.109301e+01
   2.145086e-04    1.427146e+06    1.427136e+06    1.652387e-03    1.427146e+06    1.061939e+01
   2.158659e-04    1.413708e+06    1.413697e+06    1.652387e-03    1.413708e+06    1.059880e+01
   2.172317e-04    1.400396e+06    1.400385e+06    1.652387e-03    1.400396e+06    1.099380e+01
   2.186062e-04    1.387210e+06    1.387199e+06    1.652387e-03    1.387210e+06    1.117125e+01
   2.199893e-04    1.374148e+06    1.374137e+06    1.652387e-03    1.374148e+06    1.113943e+01
   2.213812e-04    1.361208e+06    1.361197e+06    1.652387e-03    1.361208e+06    1.088282e+01
   2.227820e-04    1.348390e+06    1.348380e+06    1.652387e-03    1.348390e+06    1.042030e+01
   2.241916e-04    1.335693e+06    1.335683e+06    1.652387e-03    1.335693e+06    1.035454e+01
   2.256101e-04    1.323116e+06    1.323105e+06    1.652387e-03    1.323116e+06    1.073723e+01
   2.270375e-04    1.310657e+06    1.310646e+06    1.652387e-03    1.310657e+06    1.092578e+01
   2.284741e-04    1.298315e+06    1.298304e+06    1.652387e-03    1.298315e+06    1.089172e+01
   2.299197e-04    1.286089e+06    1.286079e+06    1.652387e-03    1.286089e+06    1.066533e+01
   2.313744e-04    1.273979e+06    1.273968e+06    1.652387e-03    1.273979e+06    1.025257e+01
   2.328384e-04    1.261982e+06    1.261972e+06    1.652387e-03    1.261982e+06    1.012887e+01
   2.343116e-04    1.250099e+06    1.250088e+06    1.652387e-03    1.250099e+06    1.048142e+01
   2.357941e-04    1.238327e+06    1.238317e+06    1.652387e-03    1.238327e+06    1.066120e+01
   2.372860e-04    1.226666e+06    1.226656e+06    1.652387e-03    1.226666e+06    1.065385e+01
   2.387874e-04    1.215115e+06    1.215105e+06    1.652387e-03    1.215115e+06    1.046487e+01
   2.402982e-04    1.203672e+06    1.203662e+06    1.652387e-03    1.203672e+06    1.009544e+01
   2.418187e-04    1.192337e+06    1.192328e+06    1.652387e-03    1.192337e+06    9.847480e+00
   2.433487e-04    1.181110e+06    1.181100e+06    1.652387e-03    1.181110e+06    1.022379e+01
   2.448884e-04    1.169988e+06    1.169977e+06    1.652387e-03    1.169988e+06    1.041821e+01
   2.464379e-04    1.158970e+06    1.158960e+06    1.652387e-03    1.158970e+06    1.043471e+01
   2.479971e-04    1.148056e+06    1.148046e+06    1.652387e-03    1.148056e+06    1.025851e+01
   2.495663e-04    1.137245e+06    1.137235e+06    1.652387e-03    1.137245e+06    9.909349e+00
   2.511453e-04    1.126535e+06    1.126526e+06    1.652387e-03    1.126535e+06    9.733752e+00
   2.527344e-04    1.115927e+06    1.115917e+06    1.652387e-03    1.115927e+06    9.987869e+00
   2.543335e-04    1.105419e+06    1.105408e+06    1.652387e-03    1.105419e+06    1.018734e+01
   2.559427e-04    1.095009e+06    1.094999e+06    1.652387e-03    1.095009e+06    1.019961e+01
   2.575621e-04    1.084697e+06    1.084687e+06    1.652387e-03    1.084697e+06    1.005028e+01
   2.591917e-04    1.074482e+06    1.074472e+06    1.652387e-03    1.074482e+06    9.742833e+00
   2.608317e-04    1.064363e+06    1.064354e+06    1.652387e-03    1.064363e+06    9.416138e+00
   2.624820e-04    1.054340e+06    1.054330e+06    1.652387e-03    1.054340e+06    9.751457e+00
   2.641428e-04    1.044411e+06    1.044402e+06    1.652387e-03    1.044411e+06    9.943984e+00
   2.658141e-04    1.034576e+06    1.034566e+06    1.652387e-03    1.034576e+06    9.977817e+00
   2.674960e-04    1.024833e+06    1.024823e+06    1.652387e-03    1.024833e+06    9.857608e+00
   2.691885e-04    1.015182e+06    1.015172e+06    1.652387e-03    1.015182e+06    9.579473e+00
   2.708917e-04    1.005621e+06    1.005612e+06    1.652387e-03    1.005621e+06    9.308239e+00
   2.726057e-04    9.961510e+05    9.961415e+05    1.652387e-03    9.961510e+05    9.515724e+00
   2.743305e-04    9.867700e+05    9.867603e+05    1.652387e-03    9.867700e+05    9.718742e+00
   2.760662e-04    9.774773e+05    9.774675e+05    1.652387e-03    9.774773e+05    9.771653e+00
   2.778130e-04    9.682718e+05    9.682621e+05    1.652387e-03    9.682718e+05    9.658611e+00
   2.795707e-04    9.591528e+05    9.591434e+05    1.652387e-03    9.591528e+05    9.401365e+00
   2.813396e-04    9.501197e+05    9.501106e+05    1.652387e-03    9.501197e+05    9.132815e+00
   2.831197e-04    9.411720e+05    9.411627e+05    1.652387e-03    9.411720e+05    9.299153e+00
   2.849111e-04    9.323086e+05    9.322991e+05    1.652387e-03    9.323086e+05    9.500830e+00
   2.867138e-04    9.235285e+05    9.235190e+05    1.652387e-03    9.235285e+05    9.550089e+00
   2.885279e-04    9.148309e+05    9.148215e+05    1.652387e-03    9.148309e+05    9.460397e+00
   2.903534e-04    9.062151e+05    9.062058e+05    1.652387e-03    9.062151e+05    9.236973e+00
   2.921906e-04    8.976802e+05    8.976713e+05    1.652387e-03    8.976802e+05    8.882484e+00
   2.940393e-04    8.892262e+05    8.892171e+05    1.652387e-03    8.892262e+05    9.078725e+00
   2.958998e-04    8.808518e+05    8.808425e+05    1.652387e-03    8.808518e+05    9.277468e+00
   2.977720e-04    8.725561e+05    8.725467e+05    1.652387e-03    8.725561e+05    9.341400e+00
   2.996561e-04    8.643383e+05    8.643291e+05    1.652387e-03    8.643383e+05    9.274898e+00
   3.015520e-04    8.561978e+05    8.561887e+05    1.652387e-03    8.561978e+05    9.074120e+00
   3.034600e-04    8.481339e+05    8.481251e+05    1.652387e-03    8.481339e+05    8.812629e+00
   3.053801e-04    8.401461e+05    8.401373e+05    1.652387e-03    8.401461e+05    8.862891e+00
   3.073123e-04    8.322338e+05    8.322247e+05    1.652387e-03    8.322338e+05    9.068880e+00
   3.092567e-04    8.243958e+05    8.243866e+05    1.652387e-03    8.243958e+05    9.147110e+00
   3.112134e-04    8.166314e+05    8.166223e+05    1.652387e-03    8.166314e+05    9.084351e+00
   3.131825e-04    8.089400e+05    8.089311e+05    1.652387e-03    8.089400e+05    8.901630e+00
   3.151641e-04    8.013209e+05    8.013122e+05    1.652387e-03    8.013208e+05    8.602584e+00
   3.171582e-04    7.937738e+05    7.937652e+05    1.652387e-03    7.937738e+05    8.670113e+00
   3.191649e-04    7.862980e+05    7.862891e+05    1.652387e-03    7.862980e+05    8.865425e+00
   3.211844e-04    7.788924e+05    7.788834e+05    1.652387e-03    7.788924e+05    8.939245e+00
   3.232166e-04    7.715564e+05    7.715475e+05    1.652387e-03    7.715564e+05    8.896483e+00
   3.252616e-04    7.642893e+05    7.642806e+05    1.652387e-03    7.642893e+05    8.740284e+00
   3.273196e-04    7.570905e+05    7.570821e+05    1.652387e-03    7.570905e+05    8.475326e+00
   3.293906e-04    7.499598e+05    7.499513e+05    1.652387e-03    7.499598e+05    8.457572e+00
   3.314748e-04    7.428964e+05    7.428877e+05    1.652387e-03    7.428964e+05    8.657233e+00
   3.335721e-04    7.358994e+05    7.358906e+05    1.652387e-03    7.358994e+05    8.744143e+00
   3.356826e-04    7.289681e+05    7.289594e+05    1.652387e-03    7.289681e+05    8.720235e+00
   3.378066e-04    7.221020e+05    7.220934e+05    1.652387e-03    7.221020e+05    8.579941e+00
   3.399439e-04    7.153004e+05    7.152920e+05    1.652387e-03    7.153004e+05    8.328339e+00
   3.420948e-04    7.085630e+05    7.085547e+05    1.652387e-03    7.085630e+05    8.269622e+00
   3.442593e-04    7.018893e+05    7.018808e+05    1.652387e-03    7.018893e+05    8.463874e+00
   3.464375e-04    6.952783e+05    6.952697e+05    1.652387e-03    6.952783e+05    8.560428e+00
   3.486295e-04    6.887294e+05    6.887209e+05    1.652387e-03    6.887294e+05    8.537235e+00
   3.508354e-04    6.822421e+05    6.822337e+05    1.652387e-03    6.822421e+05    8.413223e+00
   3.530552e-04    6.758158e+05    6.758076e+05    1.652387e-03    6.758158e+05    8.190419e+00
   3.552890e-04    6.694500e+05    6.694419e+05    1.652387e-03    6.694500e+05    8.097384e+00
   3.575370e-04    6.631445e+05    6.631362e+05    1.652387e-03    6.631445e+05    8.273201e+00
