Diffusion Coefficient [cm^2/s]
0.0280000028 0.000205354824048433 0.000305691669660768 0.000526274485658155
0.0560000028 0.000405566152855933 0.00051724982935392 0.000622098147632742
0.0840000028 0.000487222954456282 0.000580861124173445 0.000664781272003456
0.1120000028 0.000543090396626636 0.000621430161720914 0.000709307818028006
0.1400000028 0.000574416361641912 0.00064720208047141 0.000723013311649324
0.1680000028 0.000602074104594255 0.000665083130834448 0.00074277632491626
0.1960000028 0.00062474071148334 0.00068152915373397 0.00076050298478692
0.2240000028 0.000641967954267685 0.000695041538994273 0.000764504405582477
0.2520000028 0.000657159392320134 0.000706850682436922 0.000765120325954473
0.2800000028 0.000665615238077026 0.000715600303544637 0.000766403977424368
0.3080000028 0.000677611800435163 0.000722836568248086 0.000775919996643999
0.3360000028 0.000687920074420587 0.000730071580522356 0.000785995310315067
0.3640000028 0.000698214419749299 0.000737281955798048 0.000799641599324376
0.3920000028 0.000707988661079809 0.000744416482058509 0.000811275238601079
0.4200000028 0.000715139843338568 0.000751223788217281 0.000814956181060269
0.4480000028 0.00072065905600722 0.000756959570401311 0.000810846463629834
0.4760000028 0.000725645132178677 0.000761895717342951 0.000813100010366773
0.5040000028 0.000728877253083367 0.000765911737406823 0.00081445361478274
0.5320000028 0.000733327874862989 0.000769217671326612 0.00082214773551027
0.5600000028 0.000736835924391597 0.00077234394727738 0.000824414733313381
0.5880000028 0.00073995606862526 0.000774889274003757 0.000831744417542832
0.6160000028 0.000744898564204963 0.000777527479596685 0.000841263633806348
0.6440000028 0.000747050722271751 0.000780030733304155 0.000852234598318674
0.6720000028 0.000748611601826688 0.000781940861866792 0.000854902128482603
0.7000000028 0.000751602096505808 0.000783695712368175 0.000859617977173734
0.7280000028 0.000756729594955882 0.000785641583522184 0.00086426141956123
0.7560000028 0.000761996303005973 0.000788136346589615 0.000871477000100192
0.7840000028 0.000764964101609002 0.000790718527805171 0.000872613936988933
0.8120000028 0.000766481004964284 0.000793106875467859 0.000864060854960516
0.8400000028 0.000765727184066237 0.000794867409855905 0.000868132351972489
0.8680000028 0.00076705209675891 0.000796154342191581 0.000874868591146824
0.8960000028 0.000769270060893912 0.000797420633880286 0.000871165484078157
0.9240000028 0.000772877358711836 0.000798785218654294 0.000881452240397028
0.9520000028 0.000775997949124388 0.000800363723392743 0.000885974941902515
0.9800000028 0.000779556722618088 0.000802166535879685 0.000886153714515926
1.0080000028 0.000781280893027717 0.000803974112714922 0.000892697244860513
1.0360000028 0.000782966767446624 0.000805668614902246 0.000895714045009253
1.0640000028 0.000783777092231218 0.000807196203393809 0.000898376718545657
1.0920000028 0.000784822209542586 0.000808555030740007 0.000898649224388036
1.1200000028 0.000785863363630663 0.000809760062041871 0.000901978275290647
1.1480000028 0.000786423614355101 0.000810840343921677 0.000901615178428145
1.1760000028 0.00078774884514266 0.000811843012501877 0.000898344054595008
1.2040000028 0.000788153612396148 0.0008127072054268 0.000893735746303717
1.2320000028 0.000789792925259245 0.000813528039019514 0.000896445346418481
1.2600000028 0.000790838948753452 0.000814373640180153 0.00090186468374315
1.2880000028 0.000792154184259419 0.000815156946522658 0.000908870209571028
1.3160000028 0.000793361309435195 0.000815966568008373 0.000909902697456423
1.3440000028 0.000794809877107891 0.000816784646243662 0.000904635845806761
1.3720000028 0.00079574801846867 0.000817575567427143 0.000912245038056603
1.4000000028 0.00079720553460249 0.000818360836783267 0.000924068629573761
1.4280000028 0.000798176138821258 0.000819180892416132 0.000927589446658858
1.4560000028 0.000798560528493216 0.000819907299430902 0.000932290580946874
1.4840000028 0.000799864828724064 0.000820592733014721 0.00094285116436313
1.5120000028 0.000801251695414945 0.00082134514341082 0.000950333783747873
1.5400000028 0.000801545100552693 0.000822047133946733 0.000948913625715894
1.5680000028 0.000801662246456788 0.000822663908163349 0.000944461119016599
1.5960000028 0.000802948217516858 0.000823232999744133 0.000940664826900294
1.6240000028 0.000804612181252061 0.000823882036936972 0.000936226153578219
1.6520000028 0.000804403712586695 0.000824504623447889 0.000933531916565874
1.6800000028 0.000804763110681994 0.000825015471543859 0.000938580041268595
1.7080000028 0.000804613175465962 0.000825472484278893 0.00093215299782946
1.7360000028 0.000805517594984571 0.00082589150118784 0.000931160031348926
1.7640000028 0.000806166630959929 0.000826315188165518 0.000930792326545697
1.7920000028 0.000806159305175679 0.000826686514220931 0.000934589873421771
1.8200000028 0.000807478370696579 0.000827065047463954 0.000936350278958828
1.8480000028 0.000807922406665153 0.000827453921516566 0.000938286014008637
1.8760000028 0.000809635850173118 0.000827878520649059 0.000940370412162948
1.9040000028 0.000811146261321017 0.000828391333065385 0.000936877048256811
1.9320000028 0.000811730681292889 0.000828928707918925 0.000939849459352278
1.9600000028 0.000811595356435408 0.000829424134701184 0.000945028255428588
1.9880000028 0.000811466241855597 0.000829830404678582 0.000948119232013471
2.0160000028 0.000811709153112776 0.00083018872115797 0.000953663646929978
2.0440000028 0.000812854588174103 0.000830562087758409 0.000957766688635154
2.0720000028 0.000813975396030021 0.000830977091161067 0.000956151326821726
2.1000000028 0.000814096080531539 0.000831384853797331 0.000959740606704898
2.1280000028 0.000815530150945872 0.000831804523912028 0.000970091341035391
2.1560000028 0.000816167513437422 0.000832257787750838 0.000970459202134291
2.1840000028 0.000817311918281888 0.000832720671344569 0.000970546112218819
2.2120000028 0.000818406133234055 0.00083322524853178 0.000971165298219637
2.2400000028 0.000818776851063843 0.000833738279415531 0.000975516726967617
2.2680000028 0.000818968627227096 0.00083421420116001 0.000980188965103224
2.2960000028 0.000819039121777057 0.000834649298404352 0.000981371620632227
2.3240000028 0.000818969740319837 0.000835039913863196 0.000983966580011948
2.3520000028 0.00081941225115437 0.000835404111373178 0.000984841845958315
2.3800000028 0.000820278872290975 0.000835774862164088 0.000990575793498844
2.4080000028 0.000819681262914954 0.000836128723393531 0.000988890642062615
2.4360000028 0.000818380237904311 0.000836371764320099 0.000983735563235804
2.4640000028 0.00081775781772999 0.000836513957764567 0.000984718652661958
2.4920000028 0.000818073363859562 0.00083662213369452 0.000992643527212271
2.5200000028 0.000818821622442665 0.000836755182831218 0.00099354204969263
2.5480000028 0.000818874273435506 0.00083689008065068 0.000994711696810065
2.5760000028 0.000819174870095708 0.00083701220063283 0.000993776815132483
2.6040000028 0.000819501105685137 0.000837132708359409 0.000995312421874391
2.6320000028 0.000819996855116816 0.000837263939833493 0.000984088169452287
2.6600000028 0.000820177251952502 0.000837402117599028 0.000982117788491782
2.6880000028 0.000820043247434962 0.000837506377311671 0.000985974065355315
2.7160000028 0.000820677079324805 0.000837617007080348 0.000983383510402844
2.7440000028 0.000820477225697794 0.000837725495813075 0.000979934031274524
2.7720000028 0.000820777373954614 0.000837815258919161 0.000976123821204109
2.8000000028 0.00082129878639469 0.000837919837504993 0.000973424146425366
