# All units in [AU] if not specified
{"name":"Al", "Z":13, "Zstar":3.2166995111404586, "A":28,  "μ[AU]": 1.698e-01, "T[AU]": 3.675e-02, "rs[AU]": 3.000e+00 }
	 r[AU]  	 n[AU]  	 nf[AU]  	 nb[AU]     n_ion[AU]    (φ_e+φ_ions)[AU]   φtotal[AU]     δVxc/δρ[Au]  
    1.00000e-03     1.41163e+05     0.00000e+00     1.41342e+05     0.00000e+00    -5.29192e+01     1.29466e+04    -3.86419e+01
    1.02617e-03     1.35783e+05     0.00000e+00     1.35955e+05     0.00000e+00    -5.29089e+01     1.26151e+04    -3.81466e+01
    1.05303e-03     1.30607e+05     0.00000e+00     1.30773e+05     0.00000e+00    -5.28976e+01     1.22920e+04    -3.76576e+01
    1.08059e-03     1.25629e+05    2.73591e-146     1.25788e+05     0.00000e+00    -5.28855e+01     1.19771e+04    -3.71750e+01
    1.10888e-03     1.20840e+05    2.30762e-142     1.20992e+05     0.00000e+00    -5.28724e+01     1.16703e+04    -3.66984e+01
    1.13790e-03     1.16233e+05    1.54426e-138     1.16379e+05     0.00000e+00    -5.28585e+01     1.13713e+04    -3.62280e+01
    1.16768e-03     1.11801e+05    8.24762e-135     1.11942e+05     0.00000e+00    -5.28436e+01     1.10799e+04    -3.57635e+01
    1.19825e-03     1.07538e+05    3.53581e-131     1.07673e+05     0.00000e+00    -5.28279e+01     1.07959e+04    -3.53050e+01
    1.22961e-03     1.03437e+05    1.22358e-127     1.03567e+05     0.00000e+00    -5.28113e+01     1.05192e+04    -3.48524e+01
    1.26179e-03     9.94918e+04    3.43663e-124     9.96164e+04     0.00000e+00    -5.27938e+01     1.02496e+04    -3.44055e+01
    1.29482e-03     9.56969e+04    7.87588e-121     9.58165e+04     0.00000e+00    -5.27755e+01     9.98682e+03    -3.39643e+01
    1.32871e-03     9.20463e+04    1.48042e-117     9.21612e+04     0.00000e+00    -5.27562e+01     9.73075e+03    -3.35288e+01
    1.36348e-03     8.85346e+04    2.29393e-114     8.86449e+04     0.00000e+00    -5.27362e+01     9.48122e+03    -3.30988e+01
    1.39917e-03     8.51565e+04    2.94461e-111     8.52624e+04     0.00000e+00    -5.27153e+01     9.23806e+03    -3.26743e+01
    1.43579e-03     8.19069e+04    3.14638e-108     8.20086e+04     0.00000e+00    -5.26935e+01     9.00110e+03    -3.22552e+01
    1.47337e-03     7.87809e+04    2.81164e-105     7.88786e+04     0.00000e+00    -5.26709e+01     8.77019e+03    -3.18415e+01
    1.51194e-03     7.57739e+04    2.11082e-102     7.58677e+04     0.00000e+00    -5.26474e+01     8.54516e+03    -3.14330e+01
    1.55151e-03     7.28813e+04     1.33726e-99     7.29713e+04     0.00000e+00    -5.26232e+01     8.32588e+03    -3.10298e+01
    1.59212e-03     7.00988e+04     7.18018e-97     7.01852e+04     0.00000e+00    -5.25980e+01     8.11219e+03    -3.06317e+01
    1.63379e-03     6.74221e+04     3.28123e-94     6.75051e+04     0.00000e+00    -5.25721e+01     7.90395e+03    -3.02386e+01
    1.67655e-03     6.48474e+04     1.28147e-91     6.49270e+04     0.00000e+00    -5.25453e+01     7.70103e+03    -2.98506e+01
    1.72043e-03     6.23706e+04     4.29422e-89     6.24470e+04     0.00000e+00    -5.25177e+01     7.50328e+03    -2.94675e+01
    1.76546e-03     5.99880e+04     1.23955e-86     6.00613e+04     0.00000e+00    -5.24893e+01     7.31058e+03    -2.90893e+01
    1.81167e-03     5.76962e+04     3.09384e-84     5.77665e+04     0.00000e+00    -5.24600e+01     7.12280e+03    -2.87159e+01
    1.85909e-03     5.54916e+04     6.70185e-82     5.55591e+04     0.00000e+00    -5.24300e+01     6.93980e+03    -2.83473e+01
    1.90775e-03     5.33709e+04     1.26451e-79     5.34356e+04     0.00000e+00    -5.23991e+01     6.76148e+03    -2.79834e+01
    1.95768e-03     5.13309e+04     2.08551e-77     5.13930e+04     0.00000e+00    -5.23673e+01     6.58770e+03    -2.76241e+01
    2.00892e-03     4.93686e+04     3.01683e-75     4.94282e+04     0.00000e+00    -5.23348e+01     6.41836e+03    -2.72694e+01
    2.06150e-03     4.74809e+04     3.84052e-73     4.75381e+04     0.00000e+00    -5.23014e+01     6.25334e+03    -2.69192e+01
    2.11546e-03     4.56652e+04     4.31663e-71     4.57200e+04     0.00000e+00    -5.22673e+01     6.09254e+03    -2.65734e+01
    2.17083e-03     4.39186e+04     4.29727e-69     4.39712e+04     0.00000e+00    -5.22323e+01     5.93583e+03    -2.62321e+01
    2.22765e-03     4.22385e+04     3.80083e-67     4.22889e+04     0.00000e+00    -5.21964e+01     5.78312e+03    -2.58951e+01
    2.28595e-03     4.06223e+04     2.99578e-65     4.06707e+04     0.00000e+00    -5.21598e+01     5.63431e+03    -2.55624e+01
    2.34579e-03     3.90677e+04     2.11039e-63     3.91141e+04     0.00000e+00    -5.21223e+01     5.48930e+03    -2.52339e+01
    2.40718e-03     3.75724e+04     1.33254e-61     3.76168e+04     0.00000e+00    -5.20840e+01     5.34799e+03    -2.49096e+01
    2.47019e-03     3.61339e+04     7.56263e-60     3.61766e+04     0.00000e+00    -5.20449e+01     5.21028e+03    -2.45894e+01
    2.53484e-03     3.47503e+04     3.86832e-58     3.47911e+04     0.00000e+00    -5.20050e+01     5.07609e+03    -2.42733e+01
    2.60119e-03     3.34193e+04     1.78804e-56     3.34585e+04     0.00000e+00    -5.19642e+01     4.94532e+03    -2.39612e+01
    2.66927e-03     3.21391e+04     7.48792e-55     3.21766e+04     0.00000e+00    -5.19226e+01     4.81789e+03    -2.36530e+01
    2.73913e-03     3.09076e+04     2.84816e-53     3.09436e+04     0.00000e+00    -5.18802e+01     4.69371e+03    -2.33488e+01
    2.81083e-03     2.97231e+04     9.86398e-52     2.97576e+04     0.00000e+00    -5.18369e+01     4.57270e+03    -2.30484e+01
    2.88440e-03     2.85837e+04     3.11789e-50     2.86167e+04     0.00000e+00    -5.17928e+01     4.45478e+03    -2.27519e+01
    2.95989e-03     2.74877e+04     9.01579e-49     2.75193e+04     0.00000e+00    -5.17478e+01     4.33987e+03    -2.24591e+01
    3.03736e-03     2.64335e+04     2.39036e-47     2.64638e+04     0.00000e+00    -5.17020e+01     4.22789e+03    -2.21700e+01
    3.11686e-03     2.54195e+04     5.82373e-46     2.54485e+04     0.00000e+00    -5.16553e+01     4.11877e+03    -2.18846e+01
    3.19844e-03     2.44441e+04     1.30663e-44     2.44718e+04     0.00000e+00    -5.16078e+01     4.01244e+03    -2.16029e+01
    3.28216e-03     2.35059e+04     2.70538e-43     2.35325e+04     0.00000e+00    -5.15594e+01     3.90882e+03    -2.13247e+01
    3.36806e-03     2.26034e+04     5.17986e-42     2.26289e+04     0.00000e+00    -5.15102e+01     3.80784e+03    -2.10500e+01
    3.45622e-03     2.17354e+04     9.18939e-41     2.17598e+04     0.00000e+00    -5.14601e+01     3.70944e+03    -2.07788e+01
    3.54668e-03     2.09005e+04     1.51348e-39     2.09238e+04     0.00000e+00    -5.14091e+01     3.61356e+03    -2.05110e+01
    3.63951e-03     2.00974e+04     2.31854e-38     2.01197e+04     0.00000e+00    -5.13572e+01     3.52012e+03    -2.02466e+01
    3.73477e-03     1.93249e+04     3.30976e-37     1.93463e+04     0.00000e+00    -5.13045e+01     3.42907e+03    -1.99856e+01
    3.83252e-03     1.85819e+04     4.41068e-36     1.86023e+04     0.00000e+00    -5.12509e+01     3.34034e+03    -1.97279e+01
    3.93283e-03     1.78673e+04     5.49671e-35     1.78868e+04     0.00000e+00    -5.11963e+01     3.25388e+03    -1.94734e+01
    4.03577e-03     1.71799e+04     6.41695e-34     1.71986e+04     0.00000e+00    -5.11409e+01     3.16962e+03    -1.92222e+01
    4.14140e-03     1.65188e+04     7.02920e-33     1.65366e+04     0.00000e+00    -5.10846e+01     3.08752e+03    -1.89741e+01
    4.24979e-03     1.58828e+04     7.23667e-32     1.58999e+04     0.00000e+00    -5.10274e+01     3.00751e+03    -1.87292e+01
    4.36103e-03     1.52712e+04     7.01315e-31     1.52875e+04     0.00000e+00    -5.09692e+01     2.92955e+03    -1.84873e+01
    4.47517e-03     1.46829e+04     6.40764e-30     1.46984e+04     0.00000e+00    -5.09102e+01     2.85357e+03    -1.82486e+01
    4.59230e-03     1.41170e+04     5.52770e-29     1.41319e+04     0.00000e+00    -5.08502e+01     2.77954e+03    -1.80128e+01
    4.71250e-03     1.35728e+04     4.50907e-28     1.35870e+04     0.00000e+00    -5.07892e+01     2.70740e+03    -1.77800e+01
    4.83584e-03     1.30494e+04     3.48294e-27     1.30629e+04     0.00000e+00    -5.07273e+01     2.63710e+03    -1.75502e+01
    4.96241e-03     1.25459e+04     2.55107e-26     1.25588e+04     0.00000e+00    -5.06645e+01     2.56859e+03    -1.73232e+01
    5.09230e-03     1.20617e+04     1.77421e-25     1.20740e+04     0.00000e+00    -5.06007e+01     2.50184e+03    -1.70991e+01
    5.22558e-03     1.15960e+04     1.17318e-24     1.16077e+04     0.00000e+00    -5.05360e+01     2.43679e+03    -1.68779e+01
    5.36236e-03     1.11480e+04     7.38522e-24     1.11592e+04     0.00000e+00    -5.04703e+01     2.37340e+03    -1.66594e+01
    5.50271e-03     1.07172e+04     4.43140e-23     1.07279e+04     0.00000e+00    -5.04036e+01     2.31164e+03    -1.64437e+01
    5.64673e-03     1.03029e+04     2.53763e-22     1.03130e+04     0.00000e+00    -5.03359e+01     2.25145e+03    -1.62306e+01
    5.79453e-03     9.90437e+03     1.38849e-21     9.91406e+03     0.00000e+00    -5.02673e+01     2.19279e+03    -1.60203e+01
    5.94619e-03     9.52111e+03     7.26749e-21     9.53033e+03     0.00000e+00    -5.01976e+01     2.13564e+03    -1.58126e+01
    6.10183e-03     9.15250e+03     3.64289e-20     9.16128e+03     0.00000e+00    -5.01269e+01     2.07995e+03    -1.56076e+01
    6.26153e-03     8.79800e+03     1.75068e-19     8.80635e+03     0.00000e+00    -5.00552e+01     2.02568e+03    -1.54051e+01
    6.42542e-03     8.45706e+03     3.18891e+00     8.46500e+03     0.00000e+00    -4.99825e+01     1.97280e+03    -1.52051e+01
    6.59360e-03     8.12917e+03     3.14714e+00     8.13672e+03     0.00000e+00    -4.99087e+01     1.92127e+03    -1.50077e+01
    6.76618e-03     7.81382e+03     3.10591e+00     7.82100e+03     0.00000e+00    -4.98339e+01     1.87105e+03    -1.48127e+01
    6.94327e-03     7.51055e+03     3.06519e+00     7.51737e+03     0.00000e+00    -4.97580e+01     1.82212e+03    -1.46202e+01
    7.12500e-03     7.21890e+03     3.02498e+00     7.22537e+03     0.00000e+00    -4.96811e+01     1.77445e+03    -1.44301e+01
    7.31149e-03     6.93841e+03     2.98528e+00     6.94455e+03     0.00000e+00    -4.96031e+01     1.72799e+03    -1.42424e+01
    7.50286e-03     6.66868e+03     2.94608e+00     6.67450e+03     0.00000e+00    -4.95240e+01     1.68272e+03    -1.40571e+01
    7.69923e-03     6.40927e+03     2.90736e+00     6.41479e+03     0.00000e+00    -4.94438e+01     1.63860e+03    -1.38740e+01
    7.90075e-03     6.15981e+03     2.86914e+00     6.16504e+03     0.00000e+00    -4.93626e+01     1.59562e+03    -1.36933e+01
    8.10754e-03     5.91992e+03     2.83139e+00     5.92486e+03     0.00000e+00    -4.92802e+01     1.55373e+03    -1.35148e+01
    8.31975e-03     5.68922e+03     2.79412e+00     5.69390e+03     0.00000e+00    -4.91967e+01     1.51292e+03    -1.33386e+01
    8.53751e-03     5.46738e+03     2.75731e+00     5.47180e+03     0.00000e+00    -4.91120e+01     1.47315e+03    -1.31645e+01
    8.76096e-03     5.25404e+03     2.72096e+00     5.25822e+03     0.00000e+00    -4.90262e+01     1.43440e+03    -1.29926e+01
    8.99027e-03     5.04890e+03     2.68507e+00     5.05284e+03     0.00000e+00    -4.89393e+01     1.39664e+03    -1.28229e+01
    9.22558e-03     4.85163e+03     2.64963e+00     4.85534e+03     0.00000e+00    -4.88512e+01     1.35984e+03    -1.26553e+01
    9.46704e-03     4.66194e+03     2.61463e+00     4.66543e+03     0.00000e+00    -4.87619e+01     1.32399e+03    -1.24898e+01
    9.71483e-03     4.47953e+03     2.58007e+00     4.48282e+03     0.00000e+00    -4.86715e+01     1.28906e+03    -1.23263e+01
    9.96910e-03     4.30413e+03     2.54594e+00     4.30723e+03     0.00000e+00    -4.85799e+01     1.25502e+03    -1.21649e+01
    1.02300e-02     4.13548e+03     2.51223e+00     4.13838e+03     0.00000e+00    -4.84870e+01     1.22185e+03    -1.20055e+01
    1.04978e-02     3.97331e+03     2.47895e+00     3.97604e+03     0.00000e+00    -4.83929e+01     1.18953e+03    -1.18481e+01
    1.07726e-02     3.81738e+03     2.44608e+00     3.81993e+03     0.00000e+00    -4.82977e+01     1.15804e+03    -1.16926e+01
    1.10545e-02     3.66745e+03     2.41362e+00     3.66984e+03     0.00000e+00    -4.82011e+01     1.12736e+03    -1.15390e+01
    1.13438e-02     3.52329e+03     2.38157e+00     3.52552e+03     0.00000e+00    -4.81034e+01     1.09746e+03    -1.13874e+01
    1.16408e-02     3.38468e+03     2.34991e+00     3.38676e+03     0.00000e+00    -4.80043e+01     1.06833e+03    -1.12377e+01
    1.19454e-02     3.25141e+03     2.31865e+00     3.25335e+03     0.00000e+00    -4.79040e+01     1.03994e+03    -1.10898e+01
    1.22581e-02     3.12328e+03     2.28777e+00     3.12508e+03     0.00000e+00    -4.78024e+01     1.01229e+03    -1.09437e+01
    1.25789e-02     3.00009e+03     2.25728e+00     3.00175e+03     0.00000e+00    -4.76995e+01     9.85341e+02    -1.07995e+01
    1.29082e-02     2.88165e+03     2.22717e+00     2.88319e+03     0.00000e+00    -4.75953e+01     9.59085e+02    -1.06570e+01
    1.32460e-02     2.76778e+03     2.19743e+00     2.76920e+03     0.00000e+00    -4.74898e+01     9.33503e+02    -1.05163e+01
    1.35927e-02     2.65831e+03     2.16806e+00     2.65961e+03     0.00000e+00    -4.73830e+01     9.08578e+02    -1.03773e+01
    1.39485e-02     2.55306e+03     2.13905e+00     2.55425e+03     0.00000e+00    -4.72748e+01     8.84292e+02    -1.02401e+01
    1.43136e-02     2.45188e+03     2.11040e+00     2.45297e+03     0.00000e+00    -4.71653e+01     8.60630e+02    -1.01045e+01
    1.46882e-02     2.35461e+03     2.08211e+00     2.35560e+03     0.00000e+00    -4.70544e+01     8.37576e+02    -9.97067e+00
    1.50727e-02     2.26111e+03     2.05417e+00     2.26200e+03     4.28521e-10    -4.69421e+01     8.15114e+02    -9.83844e+00
    1.54672e-02     2.17122e+03     2.02657e+00     2.17202e+03     2.72736e-09    -4.68284e+01     7.93229e+02    -9.70785e+00
    1.58720e-02     2.08481e+03     1.99931e+00     2.08553e+03     5.08638e-09    -4.67133e+01     7.71906e+02    -9.57886e+00
    1.62874e-02     2.00175e+03     1.97239e+00     2.00238e+03     7.50713e-09    -4.65969e+01     7.51132e+02    -9.45145e+00
    1.67137e-02     1.92191e+03     1.94580e+00     1.92246e+03     9.99125e-09    -4.64790e+01     7.30892e+02    -9.32562e+00
    1.71512e-02     1.84517e+03     1.91954e+00     1.84565e+03     1.25404e-08    -4.63596e+01     7.11172e+02    -9.20133e+00
    1.76001e-02     1.77140e+03     1.89360e+00     1.77181e+03     1.51562e-08    -4.62388e+01     6.91960e+02    -9.07856e+00
    1.80608e-02     1.70050e+03     1.86799e+00     1.70084e+03     1.78406e-08    -4.61165e+01     6.73243e+02    -8.95730e+00
    1.85335e-02     1.63235e+03     1.84268e+00     1.63262e+03     2.05951e-08    -4.59928e+01     6.55008e+02    -8.83753e+00
    1.90186e-02     1.56685e+03     1.81769e+00     1.56706e+03     2.34218e-08    -4.58676e+01     6.37242e+02    -8.71922e+00
    1.95163e-02     1.50390e+03     1.79300e+00     1.50406e+03     2.63225e-08    -4.57409e+01     6.19934e+02    -8.60236e+00
    2.00272e-02     1.44340e+03     1.76862e+00     1.44350e+03     2.92991e-08    -4.56126e+01     6.03073e+02    -8.48693e+00
    2.05513e-02     1.38525e+03     1.74453e+00     1.38530e+03     3.23535e-08    -4.54829e+01     5.86646e+02    -8.37291e+00
    2.10892e-02     1.32938e+03     1.72074e+00     1.32938e+03     3.54880e-08    -4.53516e+01     5.70643e+02    -8.26028e+00
    2.16412e-02     1.27568e+03     1.69725e+00     1.27563e+03     3.87045e-08    -4.52187e+01     5.55053e+02    -8.14902e+00
    2.22077e-02     1.22408e+03     1.67403e+00     1.22398e+03     4.20051e-08    -4.50843e+01     5.39866e+02    -8.03912e+00
    2.27889e-02     1.17449e+03     1.65111e+00     1.17436e+03     4.53922e-08    -4.49484e+01     5.25071e+02    -7.93056e+00
    2.33854e-02     1.12684e+03     1.62846e+00     1.12667e+03     4.88679e-08    -4.48108e+01     5.10659e+02    -7.82332e+00
    2.39975e-02     1.08106e+03     1.60609e+00     1.08085e+03     5.24346e-08    -4.46717e+01     4.96619e+02    -7.71738e+00
    2.46256e-02     1.03707e+03     1.58399e+00     1.03682e+03     5.60946e-08    -4.45309e+01     4.82943e+02    -7.61273e+00
    2.52701e-02     9.94802e+02     1.56216e+00     9.94521e+02     5.98504e-08    -4.43886e+01     4.69620e+02    -7.50935e+00
    2.59315e-02     9.54193e+02     1.54060e+00     9.53881e+02     6.37045e-08    -4.42446e+01     4.56643e+02    -7.40722e+00
    2.66102e-02     9.15178e+02     1.51929e+00     9.14836e+02     6.76596e-08    -4.40989e+01     4.44002e+02    -7.30633e+00
    2.73067e-02     8.77697e+02     1.49825e+00     8.77327e+02     7.17181e-08    -4.39516e+01     4.31688e+02    -7.20666e+00
    2.80214e-02     8.41690e+02     1.47746e+00     8.41293e+02     7.58828e-08    -4.38027e+01     4.19695e+02    -7.10820e+00
    2.87549e-02     8.07100e+02     1.45693e+00     8.06679e+02     8.01566e-08    -4.36521e+01     4.08012e+02    -7.01092e+00
    2.95075e-02     7.73873e+02     1.43664e+00     7.73429e+02     8.45422e-08    -4.34998e+01     3.96633e+02    -6.91482e+00
    3.02798e-02     7.41957e+02     1.41660e+00     7.41491e+02     8.90426e-08    -4.33458e+01     3.85550e+02    -6.81988e+00
    3.10723e-02     7.11302e+02     1.39680e+00     7.10816e+02     9.36608e-08    -4.31901e+01     3.74755e+02    -6.72609e+00
    3.18856e-02     6.81858e+02     1.37725e+00     6.81353e+02     9.83999e-08    -4.30326e+01     3.64242e+02    -6.63342e+00
    3.27202e-02     6.53579e+02     1.35792e+00     6.53056e+02     1.03263e-07    -4.28735e+01     3.54002e+02    -6.54187e+00
    3.35766e-02     6.26421e+02     1.33883e+00     6.25882e+02     1.08253e-07    -4.27126e+01     3.44029e+02    -6.45142e+00
    3.44554e-02     6.00339e+02     1.31998e+00     5.99785e+02     1.13374e-07    -4.25500e+01     3.34316e+02    -6.36205e+00
    3.53572e-02     5.75294e+02     1.30134e+00     5.74726e+02     1.18629e-07    -4.23856e+01     3.24857e+02    -6.27376e+00
    3.62826e-02     5.51244e+02     1.28294e+00     5.50663e+02     1.24022e-07    -4.22195e+01     3.15645e+02    -6.18653e+00
    3.72323e-02     5.28151e+02     1.26475e+00     5.27559e+02     1.29556e-07    -4.20516e+01     3.06674e+02    -6.10034e+00
    3.82068e-02     5.05979e+02     1.24678e+00     5.05375e+02     1.35234e-07    -4.18819e+01     2.97938e+02    -6.01518e+00
    3.92068e-02     4.84692e+02     1.22903e+00     4.84078e+02     1.41062e-07    -4.17104e+01     2.89431e+02    -5.93105e+00
    4.02330e-02     4.64255e+02     1.21150e+00     4.63632e+02     1.47041e-07    -4.15371e+01     2.81147e+02    -5.84791e+00
    4.12860e-02     4.44636e+02     1.19417e+00     4.44005e+02     1.53177e-07    -4.13620e+01     2.73081e+02    -5.76577e+00
    4.23666e-02     4.25803e+02     1.17705e+00     4.25165e+02     1.59474e-07    -4.11851e+01     2.65227e+02    -5.68462e+00
    4.34755e-02     4.07726e+02     1.16014e+00     4.07082e+02     1.65936e-07    -4.10064e+01     2.57579e+02    -5.60443e+00
    4.46134e-02     3.90376e+02     1.14342e+00     3.89725e+02     1.72567e-07    -4.08259e+01     2.50133e+02    -5.52519e+00
    4.57811e-02     3.73723e+02     1.12691e+00     3.73068e+02     2.70559e-07    -4.06436e+01     2.42883e+02    -5.44690e+00
    4.69794e-02     3.57742e+02     1.11060e+00     3.57083e+02     4.17424e-07    -4.04594e+01     2.35824e+02    -5.36954e+00
    4.82090e-02     3.42407e+02     1.09448e+00     3.41743e+02     5.68132e-07    -4.02733e+01     2.28952e+02    -5.29310e+00
    4.94708e-02     3.27691e+02     1.07855e+00     3.27024e+02     7.22785e-07    -4.00855e+01     2.22262e+02    -5.21757e+00
    5.07657e-02     3.13572e+02     1.06282e+00     3.12902e+02     8.81486e-07    -3.98958e+01     2.15750e+02    -5.14293e+00
    5.20944e-02     3.00025e+02     1.04727e+00     2.99354e+02     1.04434e-06    -3.97042e+01     2.09410e+02    -5.06918e+00
