# Model replicates Starrett & Saumon 2014 'A simple method for determining the ionic structure of warm dense matter'
# Convergence: Err(φ)=5.800e-11, Err(n_e)=2.932e-03, Err(IET)=2.399e+04, Q_net=-4.955e-03
# {"name":"CS2014_Al", "Z":13, "Zstar":216.77354812205144, "A":26.981539,  "μ[AU]": -1.2419439033e+00, "Te[AU]": 1.000e+00, "Ti[AU]": 1.000e+00, "rs[AU]": 2.990e+00 }
   r[AU]           ne_full[AU]     n_ion[AU]       ne_ext[AU]      ne_PA[AU]       ne_scr[AU]      
   1.000000e-04    4.482789e+06    4.483109e+06    3.285949e-03    4.482789e+06   -3.197521e+02
   1.006327e-04    4.440586e+06    4.440903e+06    3.285949e-03    4.440586e+06   -3.176877e+02
   1.012694e-04    4.398778e+06    4.399095e+06    3.285949e-03    4.398778e+06   -3.171873e+02
   1.019102e-04    4.357366e+06    4.357680e+06    3.285949e-03    4.357366e+06   -3.140658e+02
   1.025550e-04    4.316342e+06    4.316655e+06    3.285949e-03    4.316342e+06   -3.128632e+02
   1.032039e-04    4.275704e+06    4.276017e+06    3.285949e-03    4.275704e+06   -3.121745e+02
   1.038569e-04    4.235452e+06    4.235760e+06    3.285949e-03    4.235452e+06   -3.085745e+02
   1.045140e-04    4.195574e+06    4.195883e+06    3.285949e-03    4.195574e+06   -3.087493e+02
   1.051753e-04    4.156075e+06    4.156381e+06    3.285949e-03    4.156075e+06   -3.059621e+02
   1.058408e-04    4.116948e+06    4.117251e+06    3.285949e-03    4.116948e+06   -3.032665e+02
   1.065104e-04    4.078186e+06    4.078490e+06    3.285949e-03    4.078186e+06   -3.033994e+02
   1.071843e-04    4.039793e+06    4.040093e+06    3.285949e-03    4.039793e+06   -3.002710e+02
   1.078625e-04    4.001759e+06    4.002058e+06    3.285949e-03    4.001759e+06   -2.989198e+02
   1.085450e-04    3.964082e+06    3.964380e+06    3.285949e-03    3.964082e+06   -2.981167e+02
   1.092318e-04    3.926763e+06    3.927058e+06    3.285949e-03    3.926763e+06   -2.947694e+02
   1.099229e-04    3.889792e+06    3.890087e+06    3.285949e-03    3.889792e+06   -2.944026e+02
   1.106184e-04    3.853171e+06    3.853464e+06    3.285949e-03    3.853171e+06   -2.926871e+02
   1.113183e-04    3.816895e+06    3.817185e+06    3.285949e-03    3.816895e+06   -2.899359e+02
   1.120226e-04    3.780958e+06    3.781248e+06    3.285949e-03    3.780958e+06   -2.905020e+02
   1.127314e-04    3.745363e+06    3.745650e+06    3.285949e-03    3.745363e+06   -2.870120e+02
   1.134447e-04    3.710101e+06    3.710386e+06    3.285949e-03    3.710101e+06   -2.855445e+02
   1.141625e-04    3.675170e+06    3.675455e+06    3.285949e-03    3.675170e+06   -2.846580e+02
   1.148848e-04    3.640570e+06    3.640852e+06    3.285949e-03    3.640570e+06   -2.817287e+02
   1.156117e-04    3.606294e+06    3.606575e+06    3.285949e-03    3.606294e+06   -2.810544e+02
   1.163432e-04    3.572341e+06    3.572621e+06    3.285949e-03    3.572341e+06   -2.799189e+02
   1.170794e-04    3.538709e+06    3.538986e+06    3.285949e-03    3.538709e+06   -2.771561e+02
   1.178201e-04    3.505391e+06    3.505668e+06    3.285949e-03    3.505391e+06   -2.775545e+02
   1.185656e-04    3.472389e+06    3.472664e+06    3.285949e-03    3.472389e+06   -2.742926e+02
   1.193158e-04    3.439697e+06    3.439970e+06    3.285949e-03    3.439697e+06   -2.727276e+02
   1.200707e-04    3.407312e+06    3.407584e+06    3.285949e-03    3.407312e+06   -2.721024e+02
   1.208304e-04    3.375234e+06    3.375503e+06    3.285949e-03    3.375234e+06   -2.694798e+02
   1.215950e-04    3.343456e+06    3.343724e+06    3.285949e-03    3.343456e+06   -2.685807e+02
   1.223643e-04    3.311977e+06    3.312244e+06    3.285949e-03    3.311977e+06   -2.676538e+02
   1.231385e-04    3.280796e+06    3.281061e+06    3.285949e-03    3.280796e+06   -2.648947e+02
   1.239177e-04    3.249906e+06    3.250171e+06    3.285949e-03    3.249906e+06   -2.649020e+02
   1.247017e-04    3.219309e+06    3.219571e+06    3.285949e-03    3.219309e+06   -2.624476e+02
   1.254907e-04    3.189000e+06    3.189260e+06    3.285949e-03    3.189000e+06   -2.604478e+02
   1.262847e-04    3.158974e+06    3.159234e+06    3.285949e-03    3.158974e+06   -2.603597e+02
   1.270838e-04    3.129234e+06    3.129491e+06    3.285949e-03    3.129234e+06   -2.577116e+02
   1.278879e-04    3.099771e+06    3.100028e+06    3.285949e-03    3.099771e+06   -2.566900e+02
   1.286970e-04    3.070586e+06    3.070842e+06    3.285949e-03    3.070586e+06   -2.557747e+02
   1.295113e-04    3.041678e+06    3.041931e+06    3.285949e-03    3.041678e+06   -2.531323e+02
   1.303308e-04    3.013039e+06    3.013292e+06    3.285949e-03    3.013039e+06   -2.527510e+02
   1.311554e-04    2.984672e+06    2.984923e+06    3.285949e-03    2.984672e+06   -2.511206e+02
   1.319852e-04    2.956572e+06    2.956821e+06    3.285949e-03    2.956572e+06   -2.490058e+02
   1.328203e-04    2.928733e+06    2.928983e+06    3.285949e-03    2.928733e+06   -2.493484e+02
   1.336607e-04    2.901161e+06    2.901407e+06    3.285949e-03    2.901161e+06   -2.464124e+02
   1.345064e-04    2.873846e+06    2.874091e+06    3.285949e-03    2.873846e+06   -2.452897e+02
   1.353575e-04    2.846788e+06    2.847032e+06    3.285949e-03    2.846788e+06   -2.443593e+02
   1.362139e-04    2.819986e+06    2.820228e+06    3.285949e-03    2.819986e+06   -2.419501e+02
   1.370758e-04    2.793434e+06    2.793676e+06    3.285949e-03    2.793434e+06   -2.414155e+02
   1.379431e-04    2.767134e+06    2.767374e+06    3.285949e-03    2.767134e+06   -2.402323e+02
   1.388159e-04    2.741081e+06    2.741320e+06    3.285949e-03    2.741081e+06   -2.381022e+02
   1.396942e-04    2.715272e+06    2.715510e+06    3.285949e-03    2.715272e+06   -2.384188e+02
   1.405780e-04    2.689709e+06    2.689944e+06    3.285949e-03    2.689709e+06   -2.355727e+02
   1.414675e-04    2.664384e+06    2.664619e+06    3.285949e-03    2.664384e+06   -2.343668e+02
   1.423626e-04    2.639298e+06    2.639532e+06    3.285949e-03    2.639298e+06   -2.336763e+02
   1.432634e-04    2.614449e+06    2.614681e+06    3.285949e-03    2.614449e+06   -2.314927e+02
   1.441698e-04    2.589833e+06    2.590064e+06    3.285949e-03    2.589833e+06   -2.307998e+02
   1.450820e-04    2.565449e+06    2.565679e+06    3.285949e-03    2.565449e+06   -2.297797e+02
   1.460000e-04    2.541295e+06    2.541523e+06    3.285949e-03    2.541295e+06   -2.276430e+02
   1.469237e-04    2.517367e+06    2.517595e+06    3.285949e-03    2.517367e+06   -2.275298e+02
   1.478534e-04    2.493666e+06    2.493891e+06    3.285949e-03    2.493666e+06   -2.254044e+02
   1.487889e-04    2.470188e+06    2.470412e+06    3.285949e-03    2.470188e+06   -2.239061e+02
   1.497303e-04    2.446929e+06    2.447153e+06    3.285949e-03    2.446929e+06   -2.236618e+02
   1.506777e-04    2.423891e+06    2.424113e+06    3.285949e-03    2.423891e+06   -2.214493e+02
   1.516310e-04    2.401069e+06    2.401290e+06    3.285949e-03    2.401069e+06   -2.206540e+02
   1.525904e-04    2.378462e+06    2.378681e+06    3.285949e-03    2.378462e+06   -2.197122e+02
   1.535559e-04    2.356068e+06    2.356286e+06    3.285949e-03    2.356068e+06   -2.176151e+02
   1.545275e-04    2.333884e+06    2.334101e+06    3.285949e-03    2.333884e+06   -2.172281e+02
   1.555052e-04    2.311910e+06    2.312126e+06    3.285949e-03    2.311910e+06   -2.157355e+02
   1.564891e-04    2.290143e+06    2.290357e+06    3.285949e-03    2.290143e+06   -2.140904e+02
   1.574792e-04    2.268579e+06    2.268793e+06    3.285949e-03    2.268579e+06   -2.142489e+02
   1.584757e-04    2.247220e+06    2.247432e+06    3.285949e-03    2.247220e+06   -2.118103e+02
   1.594784e-04    2.226061e+06    2.226272e+06    3.285949e-03    2.226061e+06   -2.109315e+02
   1.604874e-04    2.205101e+06    2.205311e+06    3.285949e-03    2.205101e+06   -2.100083e+02
   1.615028e-04    2.184340e+06    2.184548e+06    3.285949e-03    2.184340e+06   -2.080340e+02
   1.625247e-04    2.163772e+06    2.163980e+06    3.285949e-03    2.163772e+06   -2.075855e+02
   1.635530e-04    2.143399e+06    2.143606e+06    3.285949e-03    2.143399e+06   -2.064454e+02
   1.645879e-04    2.123218e+06    2.123423e+06    3.285949e-03    2.123218e+06   -2.047834e+02
   1.656293e-04    2.103226e+06    2.103431e+06    3.285949e-03    2.103226e+06   -2.050021e+02
   1.666772e-04    2.083424e+06    2.083626e+06    3.285949e-03    2.083424e+06   -2.025661e+02
   1.677318e-04    2.063807e+06    2.064008e+06    3.285949e-03    2.063807e+06   -2.016153e+02
   1.687931e-04    2.044374e+06    2.044575e+06    3.285949e-03    2.044374e+06   -2.009075e+02
   1.698611e-04    2.025126e+06    2.025325e+06    3.285949e-03    2.025126e+06   -1.990999e+02
   1.709358e-04    2.006057e+06    2.006256e+06    3.285949e-03    2.006057e+06   -1.985458e+02
   1.720174e-04    1.987169e+06    1.987366e+06    3.285949e-03    1.987169e+06   -1.975268e+02
   1.731058e-04    1.968459e+06    1.968654e+06    3.285949e-03    1.968459e+06   -1.958541e+02
   1.742010e-04    1.949923e+06    1.950119e+06    3.285949e-03    1.949923e+06   -1.956648e+02
   1.753032e-04    1.931564e+06    1.931758e+06    3.285949e-03    1.931564e+06   -1.938426e+02
   1.764124e-04    1.913377e+06    1.913569e+06    3.285949e-03    1.913377e+06   -1.927004e+02
   1.775286e-04    1.895360e+06    1.895552e+06    3.285949e-03    1.895360e+06   -1.923557e+02
   1.786519e-04    1.877514e+06    1.877705e+06    3.285949e-03    1.877514e+06   -1.905231e+02
   1.797822e-04    1.859835e+06    1.860025e+06    3.285949e-03    1.859835e+06   -1.898826e+02
   1.809198e-04    1.842323e+06    1.842512e+06    3.285949e-03    1.842323e+06   -1.889723e+02
   1.820645e-04    1.824977e+06    1.825164e+06    3.285949e-03    1.824977e+06   -1.873003e+02
   1.832164e-04    1.807792e+06    1.807979e+06    3.285949e-03    1.807792e+06   -1.869096e+02
   1.843757e-04    1.790771e+06    1.790956e+06    3.285949e-03    1.790771e+06   -1.855821e+02
   1.855423e-04    1.773909e+06    1.774093e+06    3.285949e-03    1.773909e+06   -1.842810e+02
   1.867162e-04    1.757205e+06    1.757389e+06    3.285949e-03    1.757205e+06   -1.842976e+02
   1.878976e-04    1.740660e+06    1.740842e+06    3.285949e-03    1.740660e+06   -1.822962e+02
   1.890865e-04    1.724270e+06    1.724451e+06    3.285949e-03    1.724270e+06   -1.815842e+02
   1.902829e-04    1.708034e+06    1.708214e+06    3.285949e-03    1.708034e+06   -1.807117e+02
   1.914868e-04    1.691951e+06    1.692130e+06    3.285949e-03    1.691951e+06   -1.791046e+02
   1.926984e-04    1.676019e+06    1.676198e+06    3.285949e-03    1.676019e+06   -1.786967e+02
   1.939177e-04    1.660238e+06    1.660415e+06    3.285949e-03    1.660237e+06   -1.776493e+02
   1.951446e-04    1.644605e+06    1.644781e+06    3.285949e-03    1.644605e+06   -1.763303e+02
   1.963793e-04    1.629118e+06    1.629294e+06    3.285949e-03    1.629118e+06   -1.764165e+02
   1.976219e-04    1.613779e+06    1.613953e+06    3.285949e-03    1.613779e+06   -1.744062e+02
   1.988723e-04    1.598583e+06    1.598757e+06    3.285949e-03    1.598583e+06   -1.736365e+02
   2.001306e-04    1.583530e+06    1.583703e+06    3.285949e-03    1.583530e+06   -1.729448e+02
   2.013968e-04    1.568620e+06    1.568791e+06    3.285949e-03    1.568620e+06   -1.714544e+02
   2.026711e-04    1.553849e+06    1.554020e+06    3.285949e-03    1.553849e+06   -1.709796e+02
   2.039535e-04    1.539217e+06    1.539387e+06    3.285949e-03    1.539217e+06   -1.700370e+02
   2.052439e-04    1.524724e+06    1.524892e+06    3.285949e-03    1.524724e+06   -1.687058e+02
   2.065425e-04    1.510366e+06    1.510534e+06    3.285949e-03    1.510366e+06   -1.684771e+02
   2.078494e-04    1.496144e+06    1.496311e+06    3.285949e-03    1.496144e+06   -1.669246e+02
   2.091645e-04    1.482056e+06    1.482222e+06    3.285949e-03    1.482056e+06   -1.660308e+02
   2.104879e-04    1.468099e+06    1.468265e+06    3.285949e-03    1.468099e+06   -1.656292e+02
   2.118197e-04    1.454276e+06    1.454440e+06    3.285949e-03    1.454276e+06   -1.641246e+02
   2.131599e-04    1.440581e+06    1.440745e+06    3.285949e-03    1.440581e+06   -1.635896e+02
   2.145086e-04    1.427016e+06    1.427179e+06    3.285949e-03    1.427016e+06   -1.627370e+02
   2.158659e-04    1.413579e+06    1.413740e+06    3.285949e-03    1.413579e+06   -1.614020e+02
   2.172317e-04    1.400267e+06    1.400428e+06    3.285949e-03    1.400267e+06   -1.610212e+02
   2.186062e-04    1.387082e+06    1.387242e+06    3.285949e-03    1.387082e+06   -1.598616e+02
   2.199893e-04    1.374020e+06    1.374179e+06    3.285949e-03    1.374020e+06   -1.588128e+02
   2.213812e-04    1.361081e+06    1.361239e+06    3.285949e-03    1.361081e+06   -1.587252e+02
   2.227820e-04    1.348265e+06    1.348422e+06    3.285949e-03    1.348265e+06   -1.570963e+02
   2.241916e-04    1.335568e+06    1.335725e+06    3.285949e-03    1.335568e+06   -1.565031e+02
   2.256101e-04    1.322991e+06    1.323147e+06    3.285949e-03    1.322991e+06   -1.557066e+02
   2.270375e-04    1.310534e+06    1.310688e+06    3.285949e-03    1.310534e+06   -1.544080e+02
   2.284741e-04    1.298192e+06    1.298346e+06    3.285949e-03    1.298192e+06   -1.540140e+02
   2.299197e-04    1.285967e+06    1.286120e+06    3.285949e-03    1.285967e+06   -1.530832e+02
   2.313744e-04    1.273858e+06    1.274010e+06    3.285949e-03    1.273858e+06   -1.520160e+02
   2.328384e-04    1.261861e+06    1.262013e+06    3.285949e-03    1.261861e+06   -1.520175e+02
   2.343116e-04    1.249979e+06    1.250129e+06    3.285949e-03    1.249979e+06   -1.503585e+02
   2.357941e-04    1.238208e+06    1.238358e+06    3.285949e-03    1.238208e+06   -1.497176e+02
   2.372860e-04    1.226548e+06    1.226697e+06    3.285949e-03    1.226548e+06   -1.490684e+02
   2.387874e-04    1.214998e+06    1.215145e+06    3.285949e-03    1.214998e+06   -1.478381e+02
   2.402982e-04    1.203555e+06    1.203703e+06    3.285949e-03    1.203555e+06   -1.474132e+02
   2.418187e-04    1.192222e+06    1.192368e+06    3.285949e-03    1.192222e+06   -1.465791e+02
   2.433487e-04    1.180995e+06    1.181140e+06    3.285949e-03    1.180995e+06   -1.455017e+02
   2.448884e-04    1.169872e+06    1.170018e+06    3.285949e-03    1.169872e+06   -1.452600e+02
   2.464379e-04    1.158856e+06    1.159000e+06    3.285949e-03    1.158856e+06   -1.439399e+02
   2.479971e-04    1.147943e+06    1.148086e+06    3.285949e-03    1.147943e+06   -1.432228e+02
   2.495663e-04    1.137132e+06    1.137275e+06    3.285949e-03    1.137132e+06   -1.427999e+02
   2.511453e-04    1.126424e+06    1.126565e+06    3.285949e-03    1.126424e+06   -1.415700e+02
   2.527344e-04    1.115816e+06    1.115957e+06    3.285949e-03    1.115816e+06   -1.411071e+02
   2.543335e-04    1.105308e+06    1.105448e+06    3.285949e-03    1.105308e+06   -1.403448e+02
   2.559427e-04    1.094899e+06    1.095038e+06    3.285949e-03    1.094899e+06   -1.392611e+02
   2.575621e-04    1.084587e+06    1.084726e+06    3.285949e-03    1.084587e+06   -1.389020e+02
   2.591917e-04    1.074373e+06    1.074511e+06    3.285949e-03    1.074373e+06   -1.378985e+02
   2.608317e-04    1.064256e+06    1.064393e+06    3.285949e-03    1.064256e+06   -1.370367e+02
   2.624820e-04    1.054232e+06    1.054369e+06    3.285949e-03    1.054232e+06   -1.368739e+02
   2.641428e-04    1.044305e+06    1.044440e+06    3.285949e-03    1.044305e+06   -1.355611e+02
   2.658141e-04    1.034470e+06    1.034605e+06    3.285949e-03    1.034470e+06   -1.350506e+02
   2.674960e-04    1.024727e+06    1.024862e+06    3.285949e-03    1.024727e+06   -1.343474e+02
   2.691885e-04    1.015077e+06    1.015210e+06    3.285949e-03    1.015077e+06   -1.332860e+02
   2.708917e-04    1.005517e+06    1.005650e+06    3.285949e-03    1.005517e+06   -1.329108e+02
   2.726057e-04    9.960475e+05    9.961796e+05    3.285949e-03    9.960475e+05   -1.321011e+02
   2.743305e-04    9.866671e+05    9.867983e+05    3.285949e-03    9.866671e+05   -1.312222e+02
   2.760662e-04    9.773742e+05    9.775054e+05    3.285949e-03    9.773742e+05   -1.311818e+02
   2.778130e-04    9.681701e+05    9.682999e+05    3.285949e-03    9.681701e+05   -1.298032e+02
   2.795707e-04    9.590518e+05    9.591811e+05    3.285949e-03    9.590518e+05   -1.292535e+02
   2.813396e-04    9.500194e+05    9.501481e+05    3.285949e-03    9.500194e+05   -1.286617e+02
   2.831197e-04    9.410725e+05    9.412002e+05    3.285949e-03    9.410725e+05   -1.276449e+02
   2.849111e-04    9.322092e+05    9.323364e+05    3.285949e-03    9.322092e+05   -1.272565e+02
   2.867138e-04    9.234296e+05    9.235562e+05    3.285949e-03    9.234296e+05   -1.265408e+02
   2.885279e-04    9.147329e+05    9.148585e+05    3.285949e-03    9.147329e+05   -1.256522e+02
   2.903534e-04    9.061174e+05    9.062428e+05    3.285949e-03    9.061174e+05   -1.254208e+02
   2.921906e-04    8.975838e+05    8.977081e+05    3.285949e-03    8.975838e+05   -1.242976e+02
   2.940393e-04    8.891301e+05    8.892538e+05    3.285949e-03    8.891301e+05   -1.237045e+02
   2.958998e-04    8.807558e+05    8.808791e+05    3.285949e-03    8.807558e+05   -1.232846e+02
   2.977720e-04    8.724610e+05    8.725832e+05    3.285949e-03    8.724609e+05   -1.222824e+02
   2.996561e-04    8.642436e+05    8.643654e+05    3.285949e-03    8.642436e+05   -1.218683e+02
   3.015520e-04    8.561038e+05    8.562250e+05    3.285949e-03    8.561038e+05   -1.212116e+02
   3.034600e-04    8.480409e+05    8.481612e+05    3.285949e-03    8.480409e+05   -1.203163e+02
   3.053801e-04    8.400533e+05    8.401733e+05    3.285949e-03    8.400533e+05   -1.199860e+02
   3.073123e-04    8.321415e+05    8.322606e+05    3.285949e-03    8.321415e+05   -1.191248e+02
   3.092567e-04    8.243040e+05    8.244224e+05    3.285949e-03    8.243040e+05   -1.183997e+02
   3.112134e-04    8.165398e+05    8.166580e+05    3.285949e-03    8.165398e+05   -1.181907e+02
   3.131825e-04    8.088495e+05    8.089666e+05    3.285949e-03    8.088495e+05   -1.171414e+02
   3.151641e-04    8.012310e+05    8.013477e+05    3.285949e-03    8.012310e+05   -1.166889e+02
   3.171582e-04    7.936844e+05    7.938005e+05    3.285949e-03    7.936844e+05   -1.160879e+02
   3.191649e-04    7.862091e+05    7.863243e+05    3.285949e-03    7.862091e+05   -1.152085e+02
   3.211844e-04    7.788037e+05    7.789186e+05    3.285949e-03    7.788037e+05   -1.148559e+02
   3.232166e-04    7.714683e+05    7.715825e+05    3.285949e-03    7.714683e+05   -1.141624e+02
   3.252616e-04    7.642021e+05    7.643155e+05    3.285949e-03    7.642021e+05   -1.134239e+02
   3.273196e-04    7.570035e+05    7.571169e+05    3.285949e-03    7.570035e+05   -1.133545e+02
   3.293906e-04    7.498738e+05    7.499860e+05    3.285949e-03    7.498738e+05   -1.122158e+02
   3.314748e-04    7.428106e+05    7.429223e+05    3.285949e-03    7.428106e+05   -1.117310e+02
   3.335721e-04    7.358139e+05    7.359251e+05    3.285949e-03    7.358139e+05   -1.112095e+02
   3.356826e-04    7.288834e+05    7.289938e+05    3.285949e-03    7.288834e+05   -1.103641e+02
   3.378066e-04    7.220177e+05    7.221277e+05    3.285949e-03    7.220177e+05   -1.100045e+02
   3.399439e-04    7.152168e+05    7.153262e+05    3.285949e-03    7.152168e+05   -1.094048e+02
   3.420948e-04    7.084801e+05    7.085888e+05    3.285949e-03    7.084801e+05   -1.086573e+02
   3.442593e-04    7.018063e+05    7.019147e+05    3.285949e-03    7.018063e+05   -1.084523e+02
   3.464375e-04    6.951961e+05    6.953036e+05    3.285949e-03    6.951961e+05   -1.074980e+02
   3.486295e-04    6.886476e+05    6.887546e+05    3.285949e-03    6.886476e+05   -1.069866e+02
   3.508354e-04    6.821607e+05    6.822673e+05    3.285949e-03    6.821607e+05   -1.065891e+02
   3.530552e-04    6.757353e+05    6.758411e+05    3.285949e-03    6.757353e+05   -1.057719e+02
   3.552890e-04    6.693700e+05    6.694753e+05    3.285949e-03    6.693700e+05   -1.053901e+02
   3.575370e-04    6.630647e+05    6.631695e+05    3.285949e-03    6.630647e+05   -1.048450e+02
