# Model replicates Starrett & Saumon 2014 'A simple method for determining the ionic structure of warm dense matter'
# Convergence: Err(φ)=5.633e-11, Err(n_e)=1.086e-13, Err(IET)=9.951e-13, Q_net=-1.497e-11
# {"name":"CS2014_Al", "Z":13, "Zstar":3.353358059168612, "A":26.981539,  "μ[AU]": 5.6337875333e-03, "Te[AU]": 3.675e-01, "Ti[AU]": 3.675e-02, "rs[AU]": 2.990e+00 }
   r[AU]           ne_full[AU]     n_ion[AU]       ne_ext[AU]      ne_PA[AU]       ne_scr[AU]      
   1.000000e-04    4.483061e+06    4.483058e+06    8.685323e-03    4.483061e+06    3.057071e+00
   1.006327e-04    4.440856e+06    4.440852e+06    8.685323e-03    4.440856e+06    4.179336e+00
   1.012694e-04    4.399047e+06    4.399044e+06    8.685323e-03    4.399047e+06    2.881133e+00
   1.019102e-04    4.357634e+06    4.357629e+06    8.685323e-03    4.357634e+06    4.214280e+00
   1.025550e-04    4.316606e+06    4.316605e+06    8.685323e-03    4.316606e+06    1.546456e+00
   1.032039e-04    4.275970e+06    4.275966e+06    8.685323e-03    4.275970e+06    4.077645e+00
   1.038569e-04    4.235713e+06    4.235710e+06    8.685323e-03    4.235713e+06    3.069795e+00
   1.045140e-04    4.195836e+06    4.195833e+06    8.685323e-03    4.195836e+06    2.952560e+00
   1.051753e-04    4.156335e+06    4.156331e+06    8.685323e-03    4.156335e+06    3.661722e+00
   1.058408e-04    4.117204e+06    4.117202e+06    8.685323e-03    4.117204e+06    2.119185e+00
   1.065104e-04    4.078444e+06    4.078440e+06    8.685323e-03    4.078444e+06    3.997866e+00
   1.071843e-04    4.040046e+06    4.040043e+06    8.685323e-03    4.040046e+06    2.801754e+00
   1.078625e-04    4.002012e+06    4.002008e+06    8.685323e-03    4.002012e+06    3.809540e+00
   1.085450e-04    3.964333e+06    3.964331e+06    8.685323e-03    3.964333e+06    2.174232e+00
   1.092318e-04    3.927012e+06    3.927009e+06    8.685323e-03    3.927012e+06    3.441173e+00
   1.099229e-04    3.890041e+06    3.890038e+06    8.685323e-03    3.890041e+06    2.960430e+00
   1.106184e-04    3.853417e+06    3.853415e+06    8.685323e-03    3.853417e+06    2.574213e+00
   1.113183e-04    3.817140e+06    3.817137e+06    8.685323e-03    3.817140e+06    3.641300e+00
   1.120226e-04    3.781201e+06    3.781200e+06    8.685323e-03    3.781201e+06    1.206799e+00
   1.127314e-04    3.745605e+06    3.745601e+06    8.685323e-03    3.745605e+06    3.709200e+00
   1.134447e-04    3.710341e+06    3.710338e+06    8.685323e-03    3.710341e+06    2.568514e+00
   1.141625e-04    3.675410e+06    3.675407e+06    8.685323e-03    3.675410e+06    3.337684e+00
   1.148848e-04    3.640807e+06    3.640804e+06    8.685323e-03    3.640807e+06    2.593216e+00
   1.156117e-04    3.606530e+06    3.606527e+06    8.685323e-03    3.606530e+06    2.770562e+00
   1.163432e-04    3.572576e+06    3.572573e+06    8.685323e-03    3.572576e+06    3.071410e+00
   1.170794e-04    3.538941e+06    3.538939e+06    8.685323e-03    3.538941e+06    2.507244e+00
   1.178201e-04    3.505624e+06    3.505621e+06    8.685323e-03    3.505624e+06    3.502345e+00
   1.185656e-04    3.472618e+06    3.472617e+06    8.685323e-03    3.472618e+06    9.508559e-01
   1.193158e-04    3.439927e+06    3.439923e+06    8.685323e-03    3.439927e+06    3.339299e+00
   1.200707e-04    3.407540e+06    3.407537e+06    8.685323e-03    3.407540e+06    2.217913e+00
   1.208304e-04    3.375459e+06    3.375457e+06    8.685323e-03    3.375459e+06    2.816062e+00
   1.215950e-04    3.343680e+06    3.343678e+06    8.685323e-03    3.343680e+06    2.828733e+00
   1.223643e-04    3.312200e+06    3.312198e+06    8.685323e-03    3.312200e+06    2.088461e+00
   1.231385e-04    3.281018e+06    3.281014e+06    8.685323e-03    3.281018e+06    3.049184e+00
   1.239177e-04    3.250127e+06    3.250125e+06    8.685323e-03    3.250127e+06    2.307708e+00
   1.247017e-04    3.219529e+06    3.219526e+06    8.685323e-03    3.219529e+06    3.269810e+00
   1.254907e-04    3.189216e+06    3.189215e+06    8.685323e-03    3.189216e+06    1.567128e+00
   1.262847e-04    3.159192e+06    3.159189e+06    8.685323e-03    3.159192e+06    2.912656e+00
   1.270838e-04    3.129448e+06    3.129446e+06    8.685323e-03    3.129448e+06    2.010312e+00
   1.278879e-04    3.099985e+06    3.099983e+06    8.685323e-03    3.099985e+06    2.400569e+00
   1.286970e-04    3.070800e+06    3.070797e+06    8.685323e-03    3.070800e+06    2.919431e+00
   1.295113e-04    3.041888e+06    3.041886e+06    8.685323e-03    3.041887e+06    1.407871e+00
   1.303308e-04    3.013250e+06    3.013247e+06    8.685323e-03    3.013250e+06    2.920352e+00
   1.311554e-04    2.984880e+06    2.984878e+06    8.685323e-03    2.984880e+06    2.001741e+00
   1.319852e-04    2.956779e+06    2.956776e+06    8.685323e-03    2.956779e+06    2.961790e+00
   1.328203e-04    2.928940e+06    2.928938e+06    8.685323e-03    2.928940e+06    1.960096e+00
   1.336607e-04    2.901365e+06    2.901363e+06    8.685323e-03    2.901365e+06    2.448739e+00
   1.345064e-04    2.874049e+06    2.874047e+06    8.685323e-03    2.874049e+06    2.215774e+00
   1.353575e-04    2.846990e+06    2.846988e+06    8.685323e-03    2.846990e+06    2.211796e+00
   1.362139e-04    2.820187e+06    2.820184e+06    8.685323e-03    2.820187e+06    2.890021e+00
   1.370758e-04    2.793633e+06    2.793632e+06    8.685323e-03    2.793633e+06    1.003194e+00
   1.379431e-04    2.767333e+06    2.767330e+06    8.685323e-03    2.767333e+06    2.711595e+00
   1.388159e-04    2.741278e+06    2.741276e+06    8.685323e-03    2.741278e+06    1.618731e+00
   1.396942e-04    2.715470e+06    2.715467e+06    8.685323e-03    2.715470e+06    2.601613e+00
   1.405780e-04    2.689903e+06    2.689901e+06    8.685323e-03    2.689903e+06    2.170942e+00
   1.414675e-04    2.664578e+06    2.664576e+06    8.685323e-03    2.664578e+06    1.959667e+00
   1.423626e-04    2.639491e+06    2.639489e+06    8.685323e-03    2.639491e+06    2.301298e+00
   1.432634e-04    2.614640e+06    2.614638e+06    8.685323e-03    2.614640e+06    1.935607e+00
   1.441698e-04    2.590024e+06    2.590021e+06    8.685323e-03    2.590024e+06    2.774512e+00
   1.450820e-04    2.565637e+06    2.565636e+06    8.685323e-03    2.565637e+06    1.384138e+00
   1.460000e-04    2.541483e+06    2.541480e+06    8.685323e-03    2.541483e+06    2.440900e+00
   1.469237e-04    2.517554e+06    2.517552e+06    8.685323e-03    2.517554e+06    1.308431e+00
   1.478534e-04    2.493852e+06    2.493849e+06    8.685323e-03    2.493852e+06    2.234918e+00
   1.487889e-04    2.470372e+06    2.470370e+06    8.685323e-03    2.470372e+06    2.234694e+00
   1.497303e-04    2.447112e+06    2.447111e+06    8.685323e-03    2.447112e+06    1.460204e+00
   1.506777e-04    2.424073e+06    2.424071e+06    8.685323e-03    2.424073e+06    2.285618e+00
   1.516310e-04    2.401250e+06    2.401248e+06    8.685323e-03    2.401250e+06    1.588396e+00
   1.525904e-04    2.378642e+06    2.378640e+06    8.685323e-03    2.378642e+06    2.587930e+00
   1.535559e-04    2.356246e+06    2.356245e+06    8.685323e-03    2.356246e+06    1.601328e+00
   1.545275e-04    2.334062e+06    2.334060e+06    8.685323e-03    2.334062e+06    2.127340e+00
   1.555052e-04    2.312086e+06    2.312085e+06    8.685323e-03    2.312086e+06    1.570684e+00
   1.564891e-04    2.290318e+06    2.290316e+06    8.685323e-03    2.290318e+06    1.968818e+00
   1.574792e-04    2.268754e+06    2.268752e+06    8.685323e-03    2.268754e+06    2.189340e+00
   1.584757e-04    2.247392e+06    2.247391e+06    8.685323e-03    2.247392e+06    1.037990e+00
   1.594784e-04    2.226234e+06    2.226231e+06    8.685323e-03    2.226234e+06    2.189884e+00
   1.604874e-04    2.205272e+06    2.205271e+06    8.685323e-03    2.205272e+06    1.193318e+00
   1.615028e-04    2.184510e+06    2.184508e+06    8.685323e-03    2.184510e+06    2.345502e+00
   1.625247e-04    2.163941e+06    2.163940e+06    8.685323e-03    2.163941e+06    1.686358e+00
   1.635530e-04    2.143567e+06    2.143566e+06    8.685323e-03    2.143567e+06    1.783040e+00
   1.645879e-04    2.123385e+06    2.123383e+06    8.685323e-03    2.123385e+06    1.722572e+00
   1.656293e-04    2.103392e+06    2.103391e+06    8.685323e-03    2.103392e+06    1.644755e+00
   1.666772e-04    2.083589e+06    2.083587e+06    8.685323e-03    2.083589e+06    2.146649e+00
   1.677318e-04    2.063970e+06    2.063969e+06    8.685323e-03    2.063970e+06    1.246798e+00
   1.687931e-04    2.044538e+06    2.044536e+06    8.685323e-03    2.044538e+06    2.032590e+00
   1.698611e-04    2.025286e+06    2.025285e+06    8.685323e-03    2.025286e+06    8.041279e-01
   1.709358e-04    2.006219e+06    2.006217e+06    8.685323e-03    2.006219e+06    2.064555e+00
   1.720174e-04    1.987329e+06    1.987327e+06    8.685323e-03    1.987329e+06    1.664741e+00
   1.731058e-04    1.968617e+06    1.968615e+06    8.685323e-03    1.968617e+06    1.419976e+00
   1.742010e-04    1.950082e+06    1.950080e+06    8.685323e-03    1.950082e+06    1.779547e+00
   1.753032e-04    1.931720e+06    1.931719e+06    8.685323e-03    1.931720e+06    1.276681e+00
   1.764124e-04    1.913533e+06    1.913531e+06    8.685323e-03    1.913533e+06    2.039320e+00
   1.775286e-04    1.895515e+06    1.895514e+06    8.685323e-03    1.895515e+06    1.336097e+00
   1.786519e-04    1.877668e+06    1.877666e+06    8.685323e-03    1.877668e+06    1.827920e+00
   1.797822e-04    1.859988e+06    1.859987e+06    8.685323e-03    1.859988e+06    1.095588e+00
   1.809198e-04    1.842476e+06    1.842474e+06    8.685323e-03    1.842476e+06    1.751646e+00
   1.820645e-04    1.825128e+06    1.825126e+06    8.685323e-03    1.825128e+06    1.559782e+00
   1.832164e-04    1.807942e+06    1.807941e+06    8.685323e-03    1.807942e+06    1.048593e+00
   1.843757e-04    1.790920e+06    1.790918e+06    8.685323e-03    1.790920e+06    1.760890e+00
   1.855423e-04    1.774057e+06    1.774056e+06    8.685323e-03    1.774057e+06    8.856883e-01
   1.867162e-04    1.757354e+06    1.757352e+06    8.685323e-03    1.757353e+06    1.881691e+00
   1.878976e-04    1.740806e+06    1.740805e+06    8.685323e-03    1.740806e+06    1.329629e+00
   1.890865e-04    1.724415e+06    1.724414e+06    8.685323e-03    1.724415e+06    1.590100e+00
   1.902829e-04    1.708178e+06    1.708177e+06    8.685323e-03    1.708178e+06    1.282623e+00
   1.914868e-04    1.692095e+06    1.692093e+06    8.685323e-03    1.692095e+06    1.409330e+00
   1.926984e-04    1.676162e+06    1.676161e+06    8.685323e-03    1.676162e+06    1.593194e+00
   1.939177e-04    1.660380e+06    1.660378e+06    8.685323e-03    1.660379e+06    1.133191e+00
   1.951446e-04    1.644746e+06    1.644744e+06    8.685323e-03    1.644746e+06    1.683182e+00
   1.963793e-04    1.629258e+06    1.629258e+06    8.685323e-03    1.629258e+06    4.780602e-01
   1.976219e-04    1.613918e+06    1.613917e+06    8.685323e-03    1.613918e+06    1.685151e+00
   1.988723e-04    1.598721e+06    1.598720e+06    8.685323e-03    1.598721e+06    1.249478e+00
   2.001306e-04    1.583668e+06    1.583667e+06    8.685323e-03    1.583668e+06    1.328846e+00
   2.013968e-04    1.568756e+06    1.568755e+06    8.685323e-03    1.568756e+06    1.382843e+00
   2.026711e-04    1.553985e+06    1.553984e+06    8.685323e-03    1.553985e+06    1.061236e+00
   2.039535e-04    1.539353e+06    1.539351e+06    8.685323e-03    1.539353e+06    1.563224e+00
   2.052439e-04    1.524858e+06    1.524857e+06    8.685323e-03    1.524858e+06    1.132662e+00
   2.065425e-04    1.510500e+06    1.510498e+06    8.685323e-03    1.510500e+06    1.558691e+00
   2.078494e-04    1.496276e+06    1.496275e+06    8.685323e-03    1.496276e+06    7.494531e-01
   2.091645e-04    1.482188e+06    1.482186e+06    8.685323e-03    1.482188e+06    1.462137e+00
   2.104879e-04    1.468231e+06    1.468230e+06    8.685323e-03    1.468231e+06    1.110226e+00
   2.118197e-04    1.454406e+06    1.454405e+06    8.685323e-03    1.454406e+06    1.052778e+00
   2.131599e-04    1.440711e+06    1.440710e+06    8.685323e-03    1.440711e+06    1.415044e+00
   2.145086e-04    1.427144e+06    1.427144e+06    8.685323e-03    1.427144e+06    7.118836e-01
   2.158659e-04    1.413707e+06    1.413705e+06    8.685323e-03    1.413707e+06    1.482467e+00
   2.172317e-04    1.400395e+06    1.400393e+06    8.685323e-03    1.400395e+06    1.064789e+00
   2.186062e-04    1.387208e+06    1.387207e+06    8.685323e-03    1.387208e+06    1.399000e+00
   2.199893e-04    1.374145e+06    1.374145e+06    8.685323e-03    1.374145e+06    9.536980e-01
   2.213812e-04    1.361206e+06    1.361205e+06    8.685323e-03    1.361206e+06    1.219252e+00
   2.227820e-04    1.348389e+06    1.348387e+06    8.685323e-03    1.348389e+06    1.174065e+00
   2.241916e-04    1.335691e+06    1.335690e+06    8.685323e-03    1.335691e+06    1.029975e+00
   2.256101e-04    1.323114e+06    1.323113e+06    8.685323e-03    1.323114e+06    1.390569e+00
   2.270375e-04    1.310654e+06    1.310654e+06    8.685323e-03    1.310654e+06    3.701025e-01
   2.284741e-04    1.298314e+06    1.298312e+06    8.685323e-03    1.298314e+06    1.363641e+00
   2.299197e-04    1.286088e+06    1.286087e+06    8.685323e-03    1.286088e+06    9.436526e-01
   2.313744e-04    1.273977e+06    1.273976e+06    8.685323e-03    1.273977e+06    1.213385e+00
   2.328384e-04    1.261981e+06    1.261980e+06    8.685323e-03    1.261981e+06    1.078993e+00
   2.343116e-04    1.250097e+06    1.250096e+06    8.685323e-03    1.250097e+06    9.646541e-01
   2.357941e-04    1.238325e+06    1.238324e+06    8.685323e-03    1.238325e+06    1.195837e+00
   2.372860e-04    1.226664e+06    1.226663e+06    8.685323e-03    1.226664e+06    9.674402e-01
   2.387874e-04    1.215114e+06    1.215112e+06    8.685323e-03    1.215114e+06    1.321903e+00
   2.402982e-04    1.203670e+06    1.203670e+06    8.685323e-03    1.203670e+06    5.895327e-01
   2.418187e-04    1.192336e+06    1.192335e+06    8.685323e-03    1.192336e+06    1.214135e+00
   2.433487e-04    1.181108e+06    1.181107e+06    8.685323e-03    1.181108e+06    7.831804e-01
   2.448884e-04    1.169986e+06    1.169985e+06    8.685323e-03    1.169986e+06    1.008989e+00
   2.464379e-04    1.158968e+06    1.158967e+06    8.685323e-03    1.158968e+06    1.143251e+00
   2.479971e-04    1.148054e+06    1.148053e+06    8.685323e-03    1.148054e+06    7.043585e-01
   2.495663e-04    1.137243e+06    1.137242e+06    8.685323e-03    1.137243e+06    1.168974e+00
   2.511453e-04    1.126534e+06    1.126533e+06    8.685323e-03    1.126534e+06    8.575343e-01
   2.527344e-04    1.115926e+06    1.115924e+06    8.685323e-03    1.115926e+06    1.219082e+00
   2.543335e-04    1.105417e+06    1.105416e+06    8.685323e-03    1.105416e+06    7.647338e-01
   2.559427e-04    1.095007e+06    1.095006e+06    8.685323e-03    1.095007e+06    1.045114e+00
   2.575621e-04    1.084695e+06    1.084694e+06    8.685323e-03    1.084695e+06    8.653821e-01
   2.591917e-04    1.074480e+06    1.074480e+06    8.685323e-03    1.074480e+06    9.304139e-01
   2.608317e-04    1.064362e+06    1.064361e+06    8.685323e-03    1.064362e+06    1.154208e+00
   2.624820e-04    1.054338e+06    1.054338e+06    8.685323e-03    1.054338e+06    4.434743e-01
   2.641428e-04    1.044410e+06    1.044409e+06    8.685323e-03    1.044410e+06    1.103836e+00
   2.658141e-04    1.034574e+06    1.034573e+06    8.685323e-03    1.034574e+06    7.119442e-01
   2.674960e-04    1.024831e+06    1.024830e+06    8.685323e-03    1.024831e+06    1.089682e+00
   2.691885e-04    1.015180e+06    1.015179e+06    8.685323e-03    1.015180e+06    8.630948e-01
   2.708917e-04    1.005620e+06    1.005619e+06    8.685323e-03    1.005620e+06    8.600129e-01
   2.726057e-04    9.961495e+05    9.961486e+05    8.685323e-03    9.961495e+05    9.174417e-01
   2.743305e-04    9.867682e+05    9.867674e+05    8.685323e-03    9.867682e+05    8.259411e-01
   2.760662e-04    9.774757e+05    9.774746e+05    8.685323e-03    9.774757e+05    1.122801e+00
   2.778130e-04    9.682698e+05    9.682692e+05    8.685323e-03    9.682697e+05    5.717427e-01
   2.795707e-04    9.591515e+05    9.591504e+05    8.685323e-03    9.591515e+05    1.008760e+00
   2.813396e-04    9.501181e+05    9.501176e+05    8.685323e-03    9.501181e+05    5.401056e-01
   2.831197e-04    9.411707e+05    9.411697e+05    8.685323e-03    9.411707e+05    9.401621e-01
   2.849111e-04    9.323070e+05    9.323061e+05    8.685323e-03    9.323070e+05    8.986577e-01
   2.867138e-04    9.235266e+05    9.235259e+05    8.685323e-03    9.235266e+05    6.656705e-01
   2.885279e-04    9.148293e+05    9.148284e+05    8.685323e-03    9.148293e+05    9.256241e-01
   2.903534e-04    9.062134e+05    9.062127e+05    8.685323e-03    9.062134e+05    6.894458e-01
   2.921906e-04    8.976792e+05    8.976782e+05    8.685323e-03    8.976792e+05    1.058675e+00
   2.940393e-04    8.892246e+05    8.892240e+05    8.685323e-03    8.892246e+05    6.643339e-01
   2.958998e-04    8.808502e+05    8.808493e+05    8.685323e-03    8.808502e+05    8.911844e-01
   2.977720e-04    8.725542e+05    8.725535e+05    8.685323e-03    8.725542e+05    6.425939e-01
   2.996561e-04    8.643367e+05    8.643359e+05    8.685323e-03    8.643367e+05    8.315782e-01
   3.015520e-04    8.561964e+05    8.561955e+05    8.685323e-03    8.561964e+05    8.835813e-01
   3.034600e-04    8.481323e+05    8.481318e+05    8.685323e-03    8.481323e+05    4.661359e-01
   3.053801e-04    8.401449e+05    8.401440e+05    8.685323e-03    8.401449e+05    8.971244e-01
   3.073123e-04    8.322319e+05    8.322314e+05    8.685323e-03    8.322319e+05    5.298595e-01
   3.092567e-04    8.243943e+05    8.243933e+05    8.685323e-03    8.243943e+05    9.692336e-01
   3.112134e-04    8.166297e+05    8.166289e+05    8.685323e-03    8.166296e+05    7.019036e-01
   3.131825e-04    8.089385e+05    8.089377e+05    8.685323e-03    8.089385e+05    7.581489e-01
   3.151641e-04    8.013196e+05    8.013189e+05    8.685323e-03    8.013196e+05    7.121835e-01
   3.171582e-04    7.937725e+05    7.937717e+05    8.685323e-03    7.937724e+05    6.993912e-01
   3.191649e-04    7.862966e+05    7.862957e+05    8.685323e-03    7.862965e+05    8.750413e-01
   3.211844e-04    7.788905e+05    7.788900e+05    8.685323e-03    7.788905e+05    5.445073e-01
   3.232166e-04    7.715548e+05    7.715540e+05    8.685323e-03    7.715548e+05    8.405770e-01
   3.252616e-04    7.642874e+05    7.642871e+05    8.685323e-03    7.642874e+05    3.645017e-01
   3.273196e-04    7.570894e+05    7.570886e+05    8.685323e-03    7.570894e+05    8.559609e-01
   3.293906e-04    7.499585e+05    7.499578e+05    8.685323e-03    7.499585e+05    6.932535e-01
   3.314748e-04    7.428948e+05    7.428942e+05    8.685323e-03    7.428948e+05    6.124852e-01
   3.335721e-04    7.358978e+05    7.358971e+05    8.685323e-03    7.358978e+05    7.411016e-01
   3.356826e-04    7.289664e+05    7.289658e+05    8.685323e-03    7.289664e+05    5.473593e-01
   3.378066e-04    7.221006e+05    7.220998e+05    8.685323e-03    7.221006e+05    8.365858e-01
   3.399439e-04    7.152990e+05    7.152984e+05    8.685323e-03    7.152990e+05    5.777717e-01
   3.420948e-04    7.085618e+05    7.085611e+05    8.685323e-03    7.085618e+05    7.606417e-01
   3.442593e-04    7.018876e+05    7.018871e+05    8.685323e-03    7.018876e+05    4.866346e-01
   3.464375e-04    6.952768e+05    6.952760e+05    8.685323e-03    6.952768e+05    7.247622e-01
   3.486295e-04    6.887278e+05    6.887272e+05    8.685323e-03    6.887278e+05    6.576649e-01
   3.508354e-04    6.822405e+05    6.822400e+05    8.685323e-03    6.822404e+05    4.792666e-01
   3.530552e-04    6.758146e+05    6.758138e+05    8.685323e-03    6.758146e+05    7.366109e-01
   3.552890e-04    6.694486e+05    6.694482e+05    8.685323e-03    6.694486e+05    3.813498e-01
   3.575370e-04    6.631432e+05    6.631424e+05    8.685323e-03    6.631432e+05    7.747101e-01
