# All units in Hartree [AU] if not specified
# Convergence: Err(φ)=-inf, Err(n_e)=9.477e-09, Err(IET)=9.787e-13, Q_net=1.950e-06
# {"name":"Al", "Z":13, "Zstar":4.890584562325731, "A":26.981539,  "μ[AU]": -1.4479934719e+00, "Te[AU]": 1.102e+00, "Ti[AU]": 3.675e-01, "rs[AU]": 2.990e+00 }
   r[AU]           U_ei[AU]        U_ii[AU]        g_ii            
   2.990107e-03    1.222793e+01    8.057714e+03    0.000000e+00
   5.980213e-03    1.048124e+01    4.057589e+03    0.000000e+00
   8.970320e-03    9.618879e+00    2.723829e+03    0.000000e+00
   1.196043e-02    9.069308e+00    2.056644e+03    0.000000e+00
   1.495053e-02    8.674063e+00    1.656105e+03    0.000000e+00
   1.794064e-02    8.367708e+00    1.388883e+03    0.000000e+00
   2.093075e-02    8.121123e+00    1.197851e+03    0.000000e+00
   2.392085e-02    7.914412e+00    1.054435e+03    0.000000e+00
   2.691096e-02    7.737484e+00    9.427677e+02    0.000000e+00
   2.990107e-02    7.583787e+00    8.533242e+02    0.000000e+00
   3.289117e-02    7.448062e+00    7.800468e+02    0.000000e+00
   3.588128e-02    7.326242e+00    7.188933e+02    0.000000e+00
   3.887139e-02    7.215962e+00    6.670687e+02    0.000000e+00
   4.186149e-02    7.115419e+00    6.225738e+02    0.000000e+00
   4.485160e-02    7.023099e+00    5.839446e+02    0.000000e+00
   4.784171e-02    6.938013e+00    5.500812e+02    0.000000e+00
   5.083181e-02    6.858743e+00    5.201445e+02    0.000000e+00
   5.382192e-02    6.784685e+00    4.934798e+02    0.000000e+00
   5.681203e-02    6.715348e+00    4.695721e+02    0.000000e+00
   5.980213e-02    6.650148e+00    4.480079e+02    0.000000e+00
   6.279224e-02    6.588551e+00    4.284535e+02    0.000000e+00
   6.578235e-02    6.530156e+00    4.106350e+02    0.000000e+00
   6.877245e-02    6.474688e+00    3.943271e+02    0.000000e+00
   7.176256e-02    6.421889e+00    3.793410e+02    0.000000e+00
   7.475267e-02    6.371413e+00    3.655190e+02    0.000000e+00
   7.774277e-02    6.323291e+00    3.527269e+02    0.000000e+00
   8.073288e-02    6.276896e+00    3.408511e+02    0.000000e+00
   8.372299e-02    6.232700e+00    3.297936e+02    0.000000e+00
   8.671309e-02    6.189977e+00    3.194704e+02    0.000000e+00
   8.970320e-02    6.148701e+00    3.098082e+02    0.000000e+00
   9.269331e-02    6.109059e+00    3.007437e+02    0.000000e+00
   9.568341e-02    6.084810e+00    2.922209e+02    0.000000e+00
   9.867352e-02    6.064843e+00    2.841913e+02    0.000000e+00
   1.016636e-01    6.043823e+00    2.766114e+02    0.000000e+00
   1.046537e-01    6.002586e+00    2.694431e+02    0.000000e+00
   1.076438e-01    5.968202e+00    2.626524e+02    0.000000e+00
   1.106339e-01    5.948102e+00    2.562090e+02    0.000000e+00
   1.136241e-01    5.907340e+00    2.500857e+02    0.000000e+00
   1.166142e-01    5.881914e+00    2.442583e+02    0.000000e+00
   1.196043e-01    5.858753e+00    2.387047e+02    0.000000e+00
   1.225944e-01    5.825109e+00    2.334052e+02    0.000000e+00
   1.255845e-01    5.798422e+00    2.283418e+02    0.000000e+00
   1.285746e-01    5.778066e+00    2.234985e+02    0.000000e+00
   1.315647e-01    5.752710e+00    2.188602e+02    0.000000e+00
   1.345548e-01    5.720387e+00    2.144137e+02    0.000000e+00
   1.375449e-01    5.698354e+00    2.101466e+02    0.000000e+00
   1.405350e-01    5.685288e+00    2.060477e+02    0.000000e+00
   1.435251e-01    5.658474e+00    2.021066e+02    0.000000e+00
   1.465152e-01    5.629186e+00    1.983139e+02    0.000000e+00
   1.495053e-01    5.605404e+00    1.946609e+02    0.000000e+00
   1.524954e-01    5.587884e+00    1.911395e+02    0.000000e+00
   1.554855e-01    5.571003e+00    1.877422e+02    0.000000e+00
   1.584757e-01    5.550752e+00    1.844624e+02    0.000000e+00
   1.614658e-01    5.524121e+00    1.812935e+02    0.000000e+00
   1.644559e-01    5.502450e+00    1.782297e+02    0.000000e+00
   1.674460e-01    5.483023e+00    1.752655e+02    0.000000e+00
   1.704361e-01    5.465760e+00    1.723958e+02    0.000000e+00
   1.734262e-01    5.451325e+00    1.696158e+02    0.000000e+00
   1.764163e-01    5.434231e+00    1.669212e+02    0.000000e+00
   1.794064e-01    5.413151e+00    1.643078e+02    0.000000e+00
   1.823965e-01    5.392652e+00    1.617718e+02    0.000000e+00
   1.853866e-01    5.372752e+00    1.593094e+02    0.000000e+00
   1.883767e-01    5.354874e+00    1.569174e+02    0.000000e+00
   1.913668e-01    5.337945e+00    1.545926e+02    0.000000e+00
   1.943569e-01    5.321918e+00    1.523319e+02    0.000000e+00
   1.973470e-01    5.306950e+00    1.501325e+02    0.000000e+00
   2.003371e-01    5.292284e+00    1.479920e+02    0.000000e+00
   2.033273e-01    5.278533e+00    1.459076e+02    0.000000e+00
   2.063174e-01    5.264048e+00    1.438771e+02    0.000000e+00
   2.093075e-01    5.246701e+00    1.418984e+02    0.000000e+00
   2.122976e-01    5.229618e+00    1.399692e+02    0.000000e+00
   2.152877e-01    5.213055e+00    1.380876e+02    0.000000e+00
   2.182778e-01    5.196941e+00    1.362519e+02    0.000000e+00
   2.212679e-01    5.181445e+00    1.344600e+02    0.000000e+00
   2.242580e-01    5.166315e+00    1.327106e+02    0.000000e+00
   2.272481e-01    5.151628e+00    1.310018e+02    0.000000e+00
   2.302382e-01    5.137214e+00    1.293324e+02    0.000000e+00
   2.332283e-01    5.123159e+00    1.277007e+02    0.000000e+00
   2.362184e-01    5.109282e+00    1.261054e+02    0.000000e+00
   2.392085e-01    5.095734e+00    1.245453e+02    0.000000e+00
   2.421986e-01    5.082271e+00    1.230191e+02    0.000000e+00
   2.451887e-01    5.069111e+00    1.215257e+02    0.000000e+00
   2.481789e-01    5.055961e+00    1.200640e+02    0.000000e+00
   2.511690e-01    5.043127e+00    1.186328e+02    0.000000e+00
   2.541591e-01    5.030294e+00    1.172312e+02    0.000000e+00
   2.571492e-01    5.017690e+00    1.158581e+02    0.000000e+00
   2.601393e-01    5.005152e+00    1.145128e+02    0.000000e+00
   2.631294e-01    4.992734e+00    1.131943e+02    0.000000e+00
   2.661195e-01    4.980454e+00    1.119017e+02    0.000000e+00
   2.691096e-01    4.968197e+00    1.106342e+02    0.000000e+00
   2.720997e-01    4.956175e+00    1.093912e+02    0.000000e+00
   2.750898e-01    4.944152e+00    1.081718e+02    0.000000e+00
   2.780799e-01    4.932301e+00    1.069753e+02    0.000000e+00
   2.810700e-01    4.920542e+00    1.058010e+02    0.000000e+00
   2.840601e-01    4.908823e+00    1.046484e+02    0.000000e+00
   2.870502e-01    4.897348e+00    1.035167e+02    0.000000e+00
   2.900403e-01    4.885872e+00    1.024055e+02    0.000000e+00
   2.930305e-01    4.874564e+00    1.013140e+02    0.000000e+00
   2.960206e-01    4.863383e+00    1.002418e+02    0.000000e+00
   2.990107e-01    4.852201e+00    9.918823e+01    0.000000e+00
   3.020008e-01    4.841321e+00    9.815293e+01    0.000000e+00
   3.049909e-01    4.830465e+00    9.713533e+01    0.000000e+00
   3.079810e-01    4.819683e+00    9.613498e+01    0.000000e+00
   3.109711e-01    4.809174e+00    9.515140e+01    0.000000e+00
   3.139612e-01    4.798666e+00    9.418419e+01    0.000000e+00
   3.169513e-01    4.788321e+00    9.323289e+01    0.000000e+00
   3.199414e-01    4.778197e+00    9.229711e+01    0.000000e+00
   3.229315e-01    4.768073e+00    9.137645e+01    0.000000e+00
   3.259216e-01    4.758178e+00    9.047054e+01    0.000000e+00
   3.289117e-01    4.748461e+00    8.957901e+01    0.000000e+00
   3.319018e-01    4.738744e+00    8.870151e+01    0.000000e+00
   3.348919e-01    4.729296e+00    8.783768e+01    0.000000e+00
   3.378821e-01    4.720012e+00    8.698722e+01    0.000000e+00
   3.408722e-01    4.710729e+00    8.614979e+01    0.000000e+00
   3.438623e-01    4.701015e+00    8.532510e+01    0.000000e+00
   3.468524e-01    4.691016e+00    8.451283e+01    0.000000e+00
   3.498425e-01    4.681016e+00    8.371271e+01    0.000000e+00
   3.528326e-01    4.671150e+00    8.292445e+01    0.000000e+00
   3.558227e-01    4.661420e+00    8.214780e+01    0.000000e+00
   3.588128e-01    4.651689e+00    8.138247e+01    0.000000e+00
   3.618029e-01    4.642121e+00    8.062823e+01    0.000000e+00
   3.647930e-01    4.632917e+00    7.988483e+01    0.000000e+00
   3.677831e-01    4.623712e+00    7.915203e+01    0.000000e+00
   3.707732e-01    4.614527e+00    7.842960e+01    0.000000e+00
   3.737633e-01    4.605875e+00    7.771732e+01    0.000000e+00
   3.767534e-01    4.597223e+00    7.701496e+01    0.000000e+00
   3.797435e-01    4.588571e+00    7.632233e+01    0.000000e+00
   3.827337e-01    4.580242e+00    7.563922e+01    0.000000e+00
   3.857238e-01    4.572070e+00    7.496543e+01    0.000000e+00
   3.887139e-01    4.563898e+00    7.430076e+01    0.000000e+00
   3.917040e-01    4.555543e+00    7.364504e+01    0.000000e+00
   3.946941e-01    4.546530e+00    7.299808e+01    0.000000e+00
   3.976842e-01    4.537517e+00    7.235971e+01    0.000000e+00
   4.006743e-01    4.528504e+00    7.172974e+01    0.000000e+00
   4.036644e-01    4.519937e+00    7.110803e+01    0.000000e+00
   4.066545e-01    4.511591e+00    7.049440e+01    0.000000e+00
   4.096446e-01    4.503245e+00    6.988871e+01    0.000000e+00
   4.126347e-01    4.494917e+00    6.929079e+01    0.000000e+00
   4.156248e-01    4.487245e+00    6.870049e+01    0.000000e+00
   4.186149e-01    4.479573e+00    6.811768e+01    0.000000e+00
   4.216050e-01    4.471902e+00    6.754222e+01    0.000000e+00
   4.245951e-01    4.464098e+00    6.697395e+01    0.000000e+00
   4.275853e-01    4.455962e+00    6.641276e+01    0.000000e+00
   4.305754e-01    4.447825e+00    6.585850e+01    0.000000e+00
   4.335655e-01    4.439689e+00    6.531107e+01    0.000000e+00
   4.365556e-01    4.431725e+00    6.477032e+01    0.000000e+00
   4.395457e-01    4.423980e+00    6.423614e+01    0.000000e+00
   4.425358e-01    4.416236e+00    6.370841e+01    0.000000e+00
   4.455259e-01    4.408492e+00    6.318703e+01    0.000000e+00
   4.485160e-01    4.401017e+00    6.267187e+01    0.000000e+00
   4.515061e-01    4.393820e+00    6.216283e+01    0.000000e+00
   4.544962e-01    4.386624e+00    6.165979e+01    0.000000e+00
   4.574863e-01    4.379428e+00    6.116267e+01    0.000000e+00
   4.604764e-01    4.372034e+00    6.067135e+01    0.000000e+00
   4.634665e-01    4.364382e+00    6.018574e+01    0.000000e+00
   4.664566e-01    4.356731e+00    5.970574e+01    0.000000e+00
   4.694467e-01    4.349079e+00    5.923126e+01    0.000000e+00
   4.724369e-01    4.341647e+00    5.876220e+01    0.000000e+00
   4.754270e-01    4.334816e+00    5.829848e+01    0.000000e+00
   4.784171e-01    4.327985e+00    5.784000e+01    0.000000e+00
   4.814072e-01    4.321153e+00    5.738669e+01    0.000000e+00
   4.843973e-01    4.314322e+00    5.693845e+01    0.000000e+00
   4.873874e-01    4.307029e+00    5.649521e+01    0.000000e+00
   4.903775e-01    4.299732e+00    5.605688e+01    0.000000e+00
   4.933676e-01    4.292435e+00    5.562340e+01    0.000000e+00
   4.963577e-01    4.285137e+00    5.519467e+01    0.000000e+00
   4.993478e-01    4.278283e+00    5.477063e+01    0.000000e+00
   5.023379e-01    4.271731e+00    5.435120e+01    0.000000e+00
   5.053280e-01    4.265179e+00    5.393631e+01    0.000000e+00
   5.083181e-01    4.258627e+00    5.352589e+01    0.000000e+00
   5.113082e-01    4.252045e+00    5.311987e+01    0.000000e+00
   5.142983e-01    4.245117e+00    5.271819e+01    0.000000e+00
   5.172885e-01    4.238189e+00    5.232078e+01    0.000000e+00
   5.202786e-01    4.231261e+00    5.192757e+01    0.000000e+00
   5.232687e-01    4.224333e+00    5.153850e+01    0.000000e+00
   5.262588e-01    4.217617e+00    5.115351e+01    0.000000e+00
   5.292489e-01    4.211165e+00    5.077254e+01    0.000000e+00
   5.322390e-01    4.204713e+00    5.039553e+01    0.000000e+00
   5.352291e-01    4.198262e+00    5.002242e+01    0.000000e+00
   5.382192e-01    4.191810e+00    4.965315e+01    0.000000e+00
   5.412093e-01    4.185443e+00    4.928768e+01    0.000000e+00
   5.441994e-01    4.179116e+00    4.892594e+01    0.000000e+00
   5.471895e-01    4.172788e+00    4.856788e+01    0.000000e+00
   5.501796e-01    4.166461e+00    4.821344e+01    0.000000e+00
   5.531697e-01    4.160134e+00    4.786259e+01    0.000000e+00
   5.561598e-01    4.153793e+00    4.751526e+01    0.000000e+00
   5.591499e-01    4.147448e+00    4.717140e+01    0.000000e+00
   5.621401e-01    4.141103e+00    4.683097e+01    0.000000e+00
   5.651302e-01    4.134758e+00    4.649393e+01    0.000000e+00
   5.681203e-01    4.128413e+00    4.616021e+01    0.000000e+00
   5.711104e-01    4.122271e+00    4.582979e+01    0.000000e+00
   5.741005e-01    4.116190e+00    4.550261e+01    0.000000e+00
   5.770906e-01    4.110109e+00    4.517862e+01    0.000000e+00
   5.800807e-01    4.104029e+00    4.485779e+01    0.000000e+00
   5.830708e-01    4.097948e+00    4.454007e+01    0.000000e+00
   5.860609e-01    4.091977e+00    4.422543e+01    0.000000e+00
   5.890510e-01    4.086077e+00    4.391381e+01    0.000000e+00
   5.920411e-01    4.080177e+00    4.360518e+01    0.000000e+00
   5.950312e-01    4.074276e+00    4.329950e+01    0.000000e+00
   5.980213e-01    4.068376e+00    4.299673e+01    0.000000e+00
   6.010114e-01    4.062515e+00    4.269684e+01    0.000000e+00
   6.040015e-01    4.056741e+00    4.239978e+01    0.000000e+00
   6.069917e-01    4.050967e+00    4.210552e+01    0.000000e+00
   6.099818e-01    4.045194e+00    4.181402e+01    0.000000e+00
   6.129719e-01    4.039420e+00    4.152525e+01    0.000000e+00
   6.159620e-01    4.033646e+00    4.123916e+01    0.000000e+00
   6.189521e-01    4.027893e+00    4.095574e+01    0.000000e+00
   6.219422e-01    4.022142e+00    4.067494e+01    0.000000e+00
   6.249323e-01    4.016392e+00    4.039673e+01    0.000000e+00
   6.279224e-01    4.010642e+00    4.012108e+01    0.000000e+00
   6.309125e-01    4.004892e+00    3.984795e+01    0.000000e+00
   6.339026e-01    3.999182e+00    3.957732e+01    0.000000e+00
   6.368927e-01    3.993584e+00    3.930915e+01    0.000000e+00
   6.398828e-01    3.987985e+00    3.904342e+01    0.000000e+00
   6.428729e-01    3.982387e+00    3.878009e+01    0.000000e+00
   6.458630e-01    3.976789e+00    3.851913e+01    0.000000e+00
   6.488531e-01    3.971190e+00    3.826051e+01    0.000000e+00
   6.518433e-01    3.965666e+00    3.800421e+01    0.000000e+00
   6.548334e-01    3.960209e+00    3.775020e+01    0.000000e+00
   6.578235e-01    3.954752e+00    3.749845e+01    0.000000e+00
   6.608136e-01    3.949295e+00    3.724893e+01    0.000000e+00
   6.638037e-01    3.943838e+00    3.700162e+01    0.000000e+00
   6.667938e-01    3.938381e+00    3.675649e+01    0.000000e+00
   6.697839e-01    3.932976e+00    3.651351e+01    0.000000e+00
   6.727740e-01    3.927602e+00    3.627266e+01    0.000000e+00
   6.757641e-01    3.922228e+00    3.603392e+01    0.000000e+00
   6.787542e-01    3.916854e+00    3.579725e+01    0.000000e+00
   6.817443e-01    3.911480e+00    3.556264e+01    0.000000e+00
   6.847344e-01    3.906107e+00    3.533006e+01    0.000000e+00
   6.877245e-01    3.900784e+00    3.509949e+01    0.000000e+00
   6.907146e-01    3.895502e+00    3.487090e+01    0.000000e+00
   6.937047e-01    3.890219e+00    3.464427e+01    0.000000e+00
   6.966949e-01    3.884936e+00    3.441958e+01    0.000000e+00
   6.996850e-01    3.879654e+00    3.419681e+01    0.000000e+00
   7.026751e-01    3.874371e+00    3.397593e+01    0.000000e+00
   7.056652e-01    3.869136e+00    3.375692e+01    0.000000e+00
   7.086553e-01    3.863991e+00    3.353977e+01    0.000000e+00
   7.116454e-01    3.858847e+00    3.332444e+01    0.000000e+00
   7.146355e-01    3.853702e+00    3.311093e+01    0.000000e+00
   7.176256e-01    3.848557e+00    3.289921e+01    0.000000e+00
   7.206157e-01    3.843413e+00    3.268926e+01    0.000000e+00
   7.236058e-01    3.838268e+00    3.248106e+01    0.000000e+00
   7.265959e-01    3.833272e+00    3.227459e+01    0.000000e+00
   7.295860e-01    3.828284e+00    3.206983e+01    0.000000e+00
   7.325761e-01    3.823297e+00    3.186677e+01    0.000000e+00
   7.355662e-01    3.818309e+00    3.166538e+01    0.000000e+00
   7.385563e-01    3.813321e+00    3.146565e+01    0.000000e+00
   7.415465e-01    3.808333e+00    3.126755e+01    0.000000e+00
   7.445366e-01    3.803350e+00    3.107108e+01    0.000000e+00
   7.475267e-01    3.798377e+00    3.087621e+01    0.000000e+00
   7.505168e-01    3.793403e+00    3.068293e+01    0.000000e+00
   7.535069e-01    3.788429e+00    3.049121e+01    0.000000e+00
   7.564970e-01    3.783455e+00    3.030105e+01    0.000000e+00
   7.594871e-01    3.778481e+00    3.011243e+01    0.000000e+00
   7.624772e-01    3.773507e+00    2.992532e+01    0.000000e+00
   7.654673e-01    3.768637e+00    2.973971e+01    0.000000e+00
   7.684574e-01    3.763826e+00    2.955560e+01    0.000000e+00
   7.714475e-01    3.759015e+00    2.937295e+01    0.000000e+00
   7.744376e-01    3.754204e+00    2.919177e+01    0.000000e+00
   7.774277e-01    3.749393e+00    2.901202e+01    0.000000e+00
   7.804178e-01    3.744583e+00    2.883370e+01    0.000000e+00
   7.834079e-01    3.739772e+00    2.865679e+01    0.000000e+00
   7.863981e-01    3.735010e+00    2.848127e+01    0.000000e+00
   7.893882e-01    3.730270e+00    2.830714e+01    0.000000e+00
   7.923783e-01    3.725529e+00    2.813438e+01    0.000000e+00
   7.953684e-01    3.720788e+00    2.796297e+01    0.000000e+00
   7.983585e-01    3.716047e+00    2.779290e+01    0.000000e+00
   8.013486e-01    3.711306e+00    2.762415e+01    0.000000e+00
   8.043387e-01    3.706565e+00    2.745672e+01    0.000000e+00
   8.073288e-01    3.701877e+00    2.729059e+01    0.000000e+00
   8.103189e-01    3.697224e+00    2.712575e+01    0.000000e+00
   8.133090e-01    3.692572e+00    2.696218e+01    0.000000e+00
   8.162991e-01    3.687919e+00    2.679987e+01    0.000000e+00
   8.192892e-01    3.683267e+00    2.663880e+01    0.000000e+00
   8.222793e-01    3.678614e+00    2.647898e+01    0.000000e+00
   8.252694e-01    3.673962e+00    2.632037e+01    0.000000e+00
   8.282595e-01    3.669337e+00    2.616298e+01    0.000000e+00
   8.312497e-01    3.664782e+00    2.600678e+01    0.000000e+00
   8.342398e-01    3.660227e+00    2.585178e+01    0.000000e+00
   8.372299e-01    3.655672e+00    2.569795e+01    0.000000e+00
   8.402200e-01    3.651117e+00    2.554528e+01    0.000000e+00
   8.432101e-01    3.646562e+00    2.539376e+01    0.000000e+00
   8.462002e-01    3.642007e+00    2.524339e+01    0.000000e+00
   8.491903e-01    3.637453e+00    2.509414e+01    0.000000e+00
   8.521804e-01    3.632965e+00    2.494602e+01    0.000000e+00
   8.551705e-01    3.628498e+00    2.479900e+01    0.000000e+00
   8.581606e-01    3.624030e+00    2.465308e+01    0.000000e+00
   8.611507e-01    3.619562e+00    2.450825e+01    0.000000e+00
   8.641408e-01    3.615094e+00    2.436449e+01    0.000000e+00
   8.671309e-01    3.610626e+00    2.422180e+01    0.000000e+00
   8.701210e-01    3.606158e+00    2.408017e+01    0.000000e+00
   8.731111e-01    3.601695e+00    2.393958e+01    0.000000e+00
   8.761013e-01    3.597299e+00    2.380003e+01    0.000000e+00
   8.790914e-01    3.592902e+00    2.366150e+01    0.000000e+00
   8.820815e-01    3.588506e+00    2.352399e+01    0.000000e+00
   8.850716e-01    3.584110e+00    2.338749e+01    0.000000e+00
   8.880617e-01    3.579713e+00    2.325198e+01    0.000000e+00
   8.910518e-01    3.575317e+00    2.311746e+01    0.000000e+00
   8.940419e-01    3.570920e+00    2.298393e+01    0.000000e+00
   8.970320e-01    3.566538e+00    2.285135e+01    0.000000e+00
   9.000221e-01    3.562233e+00    2.271975e+01    0.000000e+00
   9.030122e-01    3.557929e+00    2.258909e+01    0.000000e+00
   9.060023e-01    3.553624e+00    2.245937e+01    0.000000e+00
   9.089924e-01    3.549319e+00    2.233059e+01    0.000000e+00
   9.119825e-01    3.545015e+00    2.220273e+01    0.000000e+00
   9.149726e-01    3.540710e+00    2.207580e+01    0.000000e+00
