# All units in Hartree [AU] if not specified
# Convergence: Err(φ)=-inf, Err(n_e)=9.975e-09, Err(IET)=9.984e-13, Q_net=0.000e+00
# {"name":"Al", "Z":13, "Zstar":4.044954265218528, "A":26.981539,  "μ[AU]": 5.2076904517e-01, "Te[AU]": 3.675e-02, "Ti[AU]": 3.675e-02, "rs[AU]": 2.990e+00 }
   r[AU]           n[AU]           nf[AU]          nb[AU]          n_ion[AU]       φtot[AU]        δVxc/δρ[Au]     U_ei[AU]        U_ii[AU]        g_ii            
   1.000000e-03    1.413623e+05    8.537134e+00    1.413538e+05    0.000000e+00    1.294704e+04   -3.865999e+01    2.139548e+01    7.313425e+03    0.000000e+00
   1.373798e-03    8.765925e+04    7.302805e+00    8.765195e+04    0.000000e+00    9.409907e+03   -3.298986e+01    1.949698e+01    6.971378e+03    0.000000e+00
   1.806827e-03    5.801109e+04    6.348064e+00    5.800475e+04    0.000000e+00    7.142195e+03   -2.876783e+01    1.795681e+01    6.575132e+03    0.000000e+00
   2.299087e-03    4.032882e+04    5.629833e+00    4.032319e+04    0.000000e+00    5.601926e+03   -2.550100e+01    1.674969e+01    6.124685e+03    0.000000e+00
   2.850578e-03    2.913890e+04    5.030216e+00    2.913387e+04    0.000000e+00    4.508279e+03   -2.289736e+01    1.570378e+01    5.620040e+03    0.000000e+00
   3.461299e-03    2.171713e+04    4.563417e+00    2.171256e+04    0.000000e+00    3.703936e+03   -2.077298e+01    1.486188e+01    5.061194e+03    0.000000e+00
   4.131252e-03    1.660330e+04    4.176579e+00    1.659913e+04    0.000000e+00    3.095208e+03   -1.900619e+01    1.414320e+01    4.448149e+03    0.000000e+00
   4.860435e-03    1.296671e+04    3.843250e+00    1.296287e+04    0.000000e+00    2.623474e+03   -1.751330e+01    1.350639e+01    3.780905e+03    0.000000e+00
   5.648849e-03    1.031099e+04    3.560797e+00    1.030743e+04    0.000000e+00    2.250534e+03   -1.623488e+01    1.295410e+01    3.059460e+03    0.000000e+00
   6.496494e-03    8.327117e+03    3.311575e+00    8.323806e+03    0.000000e+00    1.950631e+03   -1.512752e+01    1.245447e+01    2.598751e+03    0.000000e+00
   7.403370e-03    6.815842e+03    3.100083e+00    6.812742e+03    0.000000e+00    1.705885e+03   -1.415881e+01    1.202109e+01    2.322108e+03    0.000000e+00
   8.369476e-03    5.644767e+03    2.907952e+00    5.641859e+03    0.000000e+00    1.503570e+03   -1.330404e+01    1.161933e+01    2.027396e+03    0.000000e+00
   9.394814e-03    4.723602e+03    2.740281e+00    4.720862e+03    0.000000e+00    1.334431e+03   -1.254406e+01    1.126210e+01    1.779351e+03    0.000000e+00
   1.047938e-02    3.989318e+03    2.591527e+00    3.986726e+03    0.000000e+00    1.191603e+03   -1.186378e+01    1.093945e+01    1.613899e+03    0.000000e+00
   1.162318e-02    3.397016e+03    2.456215e+00    3.394559e+03    0.000000e+00    1.069911e+03   -1.125115e+01    1.064069e+01    1.439412e+03    0.000000e+00
   1.282621e-02    2.914131e+03    2.333547e+00    2.911797e+03    0.000000e+00    9.653912e+02   -1.069645e+01    1.036495e+01    1.308703e+03    0.000000e+00
   1.408847e-02    2.516651e+03    2.221408e+00    2.514430e+03    0.000000e+00    8.749670e+02   -1.019174e+01    1.010957e+01    1.193144e+03    0.000000e+00
   1.540996e-02    2.186612e+03    2.119841e+00    2.184492e+03    0.000000e+00    7.962218e+02   -9.730463e+00    9.874204e+00    1.086175e+03    0.000000e+00
   1.679069e-02    1.910387e+03    2.026380e+00    1.908361e+03    0.000000e+00    7.272350e+02   -9.307168e+00    9.654903e+00    1.001882e+03    0.000000e+00
   1.823064e-02    1.677521e+03    1.940423e+00    1.675581e+03    0.000000e+00    6.664653e+02   -8.917283e+00    9.449830e+00    9.190287e+02    0.000000e+00
   1.972983e-02    1.479896e+03    1.860347e+00    1.478036e+03    0.000000e+00    6.126640e+02   -8.556941e+00    9.256827e+00    8.536341e+02    0.000000e+00
   2.128824e-02    1.311150e+03    1.786655e+00    1.309363e+03    0.000000e+00    5.648108e+02   -8.222857e+00    9.076632e+00    7.895500e+02    0.000000e+00
   2.290589e-02    1.166245e+03    1.718655e+00    1.164527e+03    0.000000e+00    5.220656e+02   -7.912213e+00    8.908062e+00    7.366091e+02    0.000000e+00
   2.458276e-02    1.041159e+03    1.654699e+00    1.039504e+03    0.000000e+00    4.837314e+02   -7.622584e+00    8.747710e+00    6.865369e+02    0.000000e+00
   2.631887e-02    9.326536e+02    1.595013e+00    9.310585e+02    0.000000e+00    4.492260e+02   -7.351869e+00    8.596499e+00    6.423273e+02    0.000000e+00
   2.811421e-02    8.381044e+02    1.538771e+00    8.365657e+02    0.000000e+00    4.180602e+02   -7.098241e+00    8.452274e+00    6.027263e+02    0.000000e+00
   2.996878e-02    7.553680e+02    1.486456e+00    7.538816e+02    0.000000e+00    3.898207e+02   -6.860102e+00    8.316553e+00    5.651783e+02    0.000000e+00
   3.188258e-02    6.826816e+02    1.437364e+00    6.812442e+02    0.000000e+00    3.641557e+02   -6.636049e+00    8.187778e+00    5.332488e+02    0.000000e+00
   3.385561e-02    6.185872e+02    1.390781e+00    6.171964e+02    0.000000e+00    3.407651e+02   -6.424843e+00    8.064281e+00    5.030054e+02    0.000000e+00
   3.588787e-02    5.618727e+02    1.346893e+00    5.605258e+02    0.000000e+00    3.193911e+02   -6.225387e+00    7.946717e+00    4.747488e+02    0.000000e+00
   3.797937e-02    5.115240e+02    1.305186e+00    5.102188e+02    0.000000e+00    2.998113e+02   -6.036709e+00    7.833864e+00    4.501159e+02    0.000000e+00
   4.013009e-02    4.666892e+02    1.265923e+00    4.654233e+02    0.000000e+00    2.818331e+02   -5.857942e+00    7.726568e+00    4.268950e+02    0.000000e+00
   4.234005e-02    4.266479e+02    1.228376e+00    4.254195e+02    0.000000e+00    2.652893e+02   -5.688306e+00    7.622964e+00    4.052126e+02    0.000000e+00
   4.460923e-02    3.907900e+02    1.192984e+00    3.895970e+02    0.000000e+00    2.500335e+02   -5.527109e+00    7.524361e+00    3.853331e+02    0.000000e+00
   4.693765e-02    3.585947e+02    1.159237e+00    3.574355e+02    0.000000e+00    2.359378e+02   -5.373722e+00    7.429447e+00    3.672074e+02    0.000000e+00
   4.932529e-02    3.296170e+02    1.127132e+00    3.284898e+02    0.000000e+00    2.228897e+02   -5.227579e+00    7.338291e+00    3.502228e+02    0.000000e+00
   5.177217e-02    3.034742e+02    1.096427e+00    3.023778e+02    0.000000e+00    2.107899e+02   -5.088169e+00    7.250287e+00    3.343514e+02    0.000000e+00
   5.427828e-02    2.798371e+02    1.067223e+00    2.787698e+02    0.000000e+00    1.995507e+02   -4.955028e+00    7.165780e+00    3.195370e+02    0.000000e+00
   5.684362e-02    2.584201e+02    1.039133e+00    2.573810e+02    0.000000e+00    1.890941e+02   -4.827734e+00    7.083732e+00    3.057109e+02    0.000000e+00
   5.946819e-02    2.389763e+02    1.012408e+00    2.379639e+02    0.000000e+00    1.793508e+02   -4.705905e+00    7.005164e+00    2.929533e+02    0.000000e+00
   6.215199e-02    2.212899e+02    9.867762e-01    2.203031e+02    0.000000e+00    1.702591e+02   -4.589188e+00    6.929188e+00    2.809862e+02    0.000000e+00
   6.489503e-02    2.051729e+02    9.621844e-01    2.042107e+02    0.000000e+00    1.617636e+02   -4.477262e+00    6.855605e+00    2.697450e+02    0.000000e+00
   6.769729e-02    1.904605e+02    9.385713e-01    1.895220e+02    0.000000e+00    1.538148e+02   -4.369834e+00    6.784274e+00    2.591805e+02    0.000000e+00
   7.055878e-02    1.770080e+02    9.158403e-01    1.760922e+02    0.000000e+00    1.463681e+02   -4.266633e+00    6.714943e+00    2.492437e+02    0.000000e+00
   7.347951e-02    1.646882e+02    8.940780e-01    1.637941e+02    0.000000e+00    1.393834e+02   -4.167411e+00    6.648146e+00    2.398881e+02    0.000000e+00
   7.645947e-02    1.533883e+02    8.730771e-01    1.525153e+02    0.000000e+00    1.328246e+02   -4.071938e+00    6.583247e+00    2.310697e+02    0.000000e+00
   7.949865e-02    1.430091e+02    8.528959e-01    1.421562e+02    0.000000e+00    1.266588e+02   -3.980003e+00    6.520259e+00    2.227477e+02    0.000000e+00
   8.259707e-02    1.334621e+02    8.334304e-01    1.326287e+02    0.000000e+00    1.208564e+02   -3.891411e+00    6.458891e+00    2.148842e+02    0.000000e+00
   8.575472e-02    1.246689e+02    8.146545e-01    1.238543e+02    0.000000e+00    1.153904e+02   -3.805979e+00    6.399333e+00    2.074445e+02    0.000000e+00
   8.897160e-02    1.165596e+02    7.964949e-01    1.157631e+02    0.000000e+00    1.102363e+02   -3.723540e+00    6.341371e+00    2.003970e+02    0.000000e+00
   9.224771e-02    1.090719e+02    7.790170e-01    1.082929e+02    0.000000e+00    1.053718e+02   -3.643938e+00    6.284996e+00    1.937125e+02    0.000000e+00
   9.558305e-02    1.021500e+02    7.621775e-01    1.013878e+02    0.000000e+00    1.007765e+02   -3.567029e+00    6.230094e+00    1.873645e+02    0.000000e+00
   9.897762e-02    9.574368e+01    7.458840e-01    9.499779e+01    0.000000e+00    9.643173e+01   -3.492676e+00    6.176902e+00    1.813599e+02    0.000000e+00
   1.024314e-01    8.980811e+01    7.300590e-01    8.907805e+01    0.000000e+00    9.232047e+01   -3.420752e+00    6.124681e+00    1.756549e+02    0.000000e+00
   1.059445e-01    8.430298e+01    7.147895e-01    8.358819e+01    0.000000e+00    8.842705e+01   -3.351141e+00    6.073726e+00    1.702180e+02    0.000000e+00
   1.095167e-01    7.919185e+01    7.000112e-01    7.849184e+01    0.000000e+00    8.473709e+01   -3.283732e+00    6.024269e+00    1.650305e+02    0.000000e+00
   1.131482e-01    7.444185e+01    6.856720e-01    7.375618e+01    0.000000e+00    8.123737e+01   -3.218422e+00    5.975802e+00    1.600754e+02    0.000000e+00
   1.168389e-01    7.002333e+01    6.717724e-01    6.935156e+01    0.000000e+00    7.791571e+01   -3.155115e+00    5.928243e+00    1.553511e+02    0.000000e+00
   1.205889e-01    6.590945e+01    6.583399e-01    6.525111e+01    0.000000e+00    7.476088e+01   -3.093721e+00    5.882175e+00    1.508581e+02    0.000000e+00
   1.243981e-01    6.207572e+01    6.452327e-01    6.143048e+01    0.000000e+00    7.176251e+01   -3.034152e+00    5.836779e+00    1.465519e+02    0.000000e+00
   1.282665e-01    5.850017e+01    6.325869e-01    5.786758e+01    0.000000e+00    6.891102e+01   -2.976331e+00    5.792443e+00    1.424205e+02    0.000000e+00
   1.321942e-01    5.516259e+01    6.202810e-01    5.454231e+01    0.000000e+00    6.619753e+01   -2.920182e+00    5.749302e+00    1.384804e+02    0.000000e+00
   1.361810e-01    5.204468e+01    6.083209e-01    5.143636e+01    0.000000e+00    6.361381e+01   -2.865633e+00    5.706841e+00    1.347058e+02    0.000000e+00
   1.402271e-01    4.912975e+01    5.966974e-01    4.853305e+01    0.000000e+00    6.115224e+01   -2.812618e+00    5.665231e+00    1.310734e+02    0.000000e+00
   1.443325e-01    4.640256e+01    5.853869e-01    4.581717e+01    0.000000e+00    5.880572e+01   -2.761074e+00    5.624578e+00    1.276018e+02    0.000000e+00
   1.484971e-01    4.384919e+01    5.743969e-01    4.327479e+01    0.000000e+00    5.656768e+01   -2.710941e+00    5.584551e+00    1.242649e+02    0.000000e+00
   1.527209e-01    4.145691e+01    5.637202e-01    4.089319e+01    0.000000e+00    5.443197e+01   -2.662163e+00    5.545559e+00    1.210510e+02    0.000000e+00
   1.570039e-01    3.921400e+01    5.533087e-01    3.866069e+01    0.000000e+00    5.239288e+01   -2.614687e+00    5.507151e+00    1.179749e+02    0.000000e+00
   1.613462e-01    3.710979e+01    5.431738e-01    3.656661e+01    0.000000e+00    5.044509e+01   -2.568462e+00    5.469394e+00    1.150011e+02    0.000000e+00
   1.657477e-01    3.513446e+01    5.333233e-01    3.460113e+01    0.000000e+00    4.858362e+01   -2.523441e+00    5.432580e+00    1.121528e+02    0.000000e+00
   1.702084e-01    3.327894e+01    5.237178e-01    3.275522e+01    0.000000e+00    4.680382e+01   -2.479578e+00    5.396170e+00    1.093972e+02    0.000000e+00
   1.747283e-01    3.153494e+01    5.143545e-01    3.102059e+01    0.000000e+00    4.510136e+01   -2.436829e+00    5.360635e+00    1.067518e+02    0.000000e+00
   1.793075e-01    2.989480e+01    5.052243e-01    2.938958e+01    0.000000e+00    4.347215e+01   -2.395155e+00    5.325559e+00    1.041902e+02    0.000000e+00
   1.839460e-01    2.835146e+01    4.963135e-01    2.785515e+01    0.000000e+00    4.191239e+01   -2.354517e+00    5.291089e+00    1.017295e+02    0.000000e+00
   1.886436e-01    2.689845e+01    4.876464e-01    2.641080e+01    0.000000e+00    4.041851e+01   -2.314877e+00    5.257331e+00    9.934486e+01    0.000000e+00
   1.934005e-01    2.552971e+01    4.791813e-01    2.505053e+01    0.000000e+00    3.898716e+01   -2.276200e+00    5.223959e+00    9.704823e+01    0.000000e+00
   1.982166e-01    2.423969e+01    4.709117e-01    2.376877e+01    0.000000e+00    3.761519e+01   -2.238453e+00    5.191304e+00    9.482552e+01    0.000000e+00
   2.030919e-01    2.302327e+01    4.628509e-01    2.256042e+01    0.000000e+00    3.629965e+01   -2.201605e+00    5.158972e+00    9.267429e+01    0.000000e+00
   2.080265e-01    2.187567e+01    4.549787e-01    2.142069e+01    0.000000e+00    3.503775e+01   -2.165624e+00    5.127398e+00    9.059848e+01    0.000000e+00
   2.130203e-01    2.079249e+01    4.472812e-01    2.034521e+01    0.000000e+00    3.382688e+01   -2.130481e+00    5.096074e+00    8.858545e+01    0.000000e+00
   2.180734e-01    1.976963e+01    4.397636e-01    1.932987e+01    0.000000e+00    3.266458e+01   -2.096149e+00    5.065367e+00    8.663551e+01    0.000000e+00
   2.231856e-01    1.880331e+01    4.324283e-01    1.837088e+01    0.000000e+00    3.154851e+01   -2.062602e+00    5.035067e+00    8.475043e+01    0.000000e+00
   2.283571e-01    1.788999e+01    4.252558e-01    1.746474e+01    0.000000e+00    3.047650e+01   -2.029813e+00    5.005231e+00    8.292108e+01    0.000000e+00
   2.335879e-01    1.702640e+01    4.182418e-01    1.660815e+01    0.000000e+00    2.944648e+01   -1.997760e+00    4.975820e+00    8.114575e+01    0.000000e+00
   2.388778e-01    1.620948e+01    4.113871e-01    1.579809e+01    0.000000e+00    2.845649e+01   -1.966418e+00    4.946787e+00    7.942504e+01    0.000000e+00
   2.442270e-01    1.543640e+01    4.046894e-01    1.503171e+01    0.000000e+00    2.750470e+01   -1.935766e+00    4.918261e+00    7.775644e+01    0.000000e+00
   2.496354e-01    1.470452e+01    3.981340e-01    1.430638e+01    0.000000e+00    2.658936e+01   -1.905782e+00    4.889996e+00    7.613544e+01    0.000000e+00
   2.551031e-01    1.401135e+01    3.917122e-01    1.361964e+01    0.000000e+00    2.570882e+01   -1.876445e+00    4.862216e+00    7.456040e+01    0.000000e+00
   2.606300e-01    1.335463e+01    3.854411e-01    1.296919e+01    0.000000e+00    2.486153e+01   -1.847738e+00    4.834689e+00    7.302965e+01    0.000000e+00
   2.662161e-01    1.273218e+01    3.792952e-01    1.235288e+01    0.000000e+00    2.404600e+01   -1.819640e+00    4.807669e+00    7.154158e+01    0.000000e+00
   2.718614e-01    1.214202e+01    3.732850e-01    1.176873e+01    0.000000e+00    2.326084e+01   -1.792134e+00    4.780819e+00    7.009578e+01    0.000000e+00
   2.775660e-01    1.158226e+01    3.673906e-01    1.121487e+01    0.000000e+00    2.250473e+01   -1.765202e+00    4.754475e+00    6.868954e+01    0.000000e+00
   2.833298e-01    1.105117e+01    3.616327e-01    1.068954e+01    0.000000e+00    2.177640e+01   -1.738828e+00    4.728293e+00    6.732089e+01    0.000000e+00
   2.891528e-01    1.054710e+01    3.559873e-01    1.019111e+01    0.000000e+00    2.107467e+01   -1.712996e+00    4.702629e+00    6.598847e+01    0.000000e+00
   2.950351e-01    1.006851e+01    3.504545e-01    9.718059e+00    0.000000e+00    2.039839e+01   -1.687690e+00    4.677030e+00    6.469090e+01    0.000000e+00
   3.009766e-01    9.613979e+00    3.450335e-01    9.268946e+00    0.000000e+00    1.974649e+01   -1.662896e+00    4.651961e+00    6.342690e+01    0.000000e+00
   3.069773e-01    9.182157e+00    3.397245e-01    8.842432e+00    0.000000e+00    1.911795e+01   -1.638601e+00    4.626961e+00    6.219521e+01    0.000000e+00
   3.130373e-01    8.771781e+00    3.345225e-01    8.437259e+00    0.000000e+00    1.851180e+01   -1.614789e+00    4.602476e+00    6.099462e+01    0.000000e+00
   3.191565e-01    8.381668e+00    3.294226e-01    8.052246e+00    0.000000e+00    1.792711e+01   -1.591447e+00    4.578037e+00    5.982397e+01    0.000000e+00
   3.253349e-01    8.010708e+00    3.244234e-01    7.686285e+00    0.000000e+00    1.736300e+01   -1.568564e+00    4.554079e+00    5.868215e+01    0.000000e+00
   3.315726e-01    7.657862e+00    3.195244e-01    7.338337e+00    0.000000e+00    1.681863e+01   -1.546127e+00    4.530188e+00    5.756810e+01    0.000000e+00
   3.378694e-01    7.322145e+00    3.147201e-01    7.007425e+00    0.000000e+00    1.629321e+01   -1.524125e+00    4.506736e+00    5.648080e+01    0.000000e+00
   3.442256e-01    7.002637e+00    3.100066e-01    6.692630e+00    0.000000e+00    1.578597e+01   -1.502545e+00    4.483345e+00    5.542020e+01    0.000000e+00
   3.506409e-01    6.698471e+00    3.053805e-01    6.393090e+00    0.000000e+00    1.529619e+01   -1.481376e+00    4.460340e+00    5.438452e+01    0.000000e+00
   3.571155e-01    6.408838e+00    3.008460e-01    6.107992e+00    0.000000e+00    1.482318e+01   -1.460609e+00    4.437438e+00    5.337283e+01    0.000000e+00
   3.636493e-01    6.132970e+00    2.963973e-01    5.836573e+00    0.000000e+00    1.436628e+01   -1.440233e+00    4.414886e+00    5.238426e+01    0.000000e+00
   3.702423e-01    5.870139e+00    2.920271e-01    5.578112e+00    0.000000e+00    1.392486e+01   -1.420237e+00    4.392427e+00    5.141800e+01    0.000000e+00
   3.768946e-01    5.619678e+00    2.877455e-01    5.331932e+00    0.000000e+00    1.349832e+01   -1.400614e+00    4.370294e+00    5.047355e+01    0.000000e+00
   3.836061e-01    5.380931e+00    2.835362e-01    5.097395e+00    0.000000e+00    1.308608e+01   -1.381352e+00    4.348278e+00    4.955095e+01    0.000000e+00
   3.903768e-01    5.153309e+00    2.794106e-01    4.873899e+00    0.000000e+00    1.268760e+01   -1.362444e+00    4.326526e+00    4.864839e+01    0.000000e+00
   3.972068e-01    4.936232e+00    2.753563e-01    4.660875e+00    0.000000e+00    1.230236e+01   -1.343881e+00    4.304942e+00    4.776520e+01    0.000000e+00
   4.040960e-01    4.729166e+00    2.713756e-01    4.457790e+00    0.000000e+00    1.192985e+01   -1.325654e+00    4.283531e+00    4.690141e+01    0.000000e+00
   4.110444e-01    4.531607e+00    2.674695e-01    4.264137e+00    0.000000e+00    1.156959e+01   -1.307755e+00    4.262361e+00    4.605648e+01    0.000000e+00
   4.180521e-01    4.343071e+00    2.636314e-01    4.079440e+00    0.000000e+00    1.122113e+01   -1.290177e+00    4.241289e+00    4.522901e+01    0.000000e+00
   4.251189e-01    4.163108e+00    2.598605e-01    3.903248e+00    0.000000e+00    1.088402e+01   -1.272911e+00    4.220489e+00    4.441915e+01    0.000000e+00
   4.322451e-01    3.991291e+00    2.561568e-01    3.735134e+00    0.000000e+00    1.055786e+01   -1.255951e+00    4.199730e+00    4.362642e+01    0.000000e+00
   4.394304e-01    3.827219e+00    2.525203e-01    3.574698e+00    0.000000e+00    1.024223e+01   -1.239289e+00    4.179307e+00    4.284947e+01    0.000000e+00
   4.466750e-01    3.670506e+00    2.489469e-01    3.421559e+00    0.000000e+00    9.936752e+00   -1.222919e+00    4.158871e+00    4.208922e+01    0.000000e+00
   4.539788e-01    3.520792e+00    2.454353e-01    3.275357e+00    0.000000e+00    9.641058e+00   -1.206833e+00    4.138774e+00    4.134388e+01    0.000000e+00
   4.613418e-01    3.377735e+00    2.419842e-01    3.135751e+00    0.000000e+00    9.354794e+00   -1.191026e+00    4.118682e+00    4.061382e+01    0.000000e+00
   4.687641e-01    3.241013e+00    2.385924e-01    3.002420e+00    0.000000e+00    9.077621e+00   -1.175491e+00    4.098847e+00    3.989819e+01    0.000000e+00
   4.762456e-01    3.110318e+00    2.352583e-01    2.875060e+00    0.000000e+00    8.809214e+00   -1.160221e+00    4.079086e+00    3.919682e+01    0.000000e+00
