# All units in Hartree [AU] if not specified
# Convergence: Err(φ)=-inf, Err(n_e)=9.730e-09, Err(IET)=9.998e-13, Q_net=4.547e-13
# {"name":"Al", "Z":13, "Zstar":4.0097075834203775, "A":26.981539,  "μ[AU]": 4.9897977668e-01, "Te[AU]": 1.102e-01, "Ti[AU]": 3.675e-02, "rs[AU]": 2.990e+00 }
   r[AU]           n[AU]           nf[AU]          nb[AU]          n_ion[AU]       φtot[AU]        δVxc/δρ[Au]     U_ei[AU]        U_ii[AU]        g_ii            
   1.000000e-03    1.413623e+05    8.260690e+00    1.413541e+05    0.000000e+00    1.294706e+04   -3.865999e+01    2.093774e+01    7.187421e+03    0.000000e+00
   1.373798e-03    8.765920e+04    6.996910e+00    8.765220e+04    0.000000e+00    9.409924e+03   -3.298985e+01    1.897026e+01    6.851308e+03    0.000000e+00
   1.806827e-03    5.801106e+04    6.098791e+00    5.800496e+04    0.000000e+00    7.142212e+03   -2.876783e+01    1.750221e+01    6.461936e+03    0.000000e+00
   2.299087e-03    4.032876e+04    5.376883e+00    4.032338e+04    0.000000e+00    5.601944e+03   -2.550098e+01    1.627203e+01    6.019304e+03    0.000000e+00
   2.850578e-03    2.913888e+04    4.836192e+00    2.913404e+04    0.000000e+00    4.508296e+03   -2.289736e+01    1.531619e+01    5.523413e+03    0.000000e+00
   3.461299e-03    2.171710e+04    4.380611e+00    2.171272e+04    0.000000e+00    3.703953e+03   -2.077297e+01    1.448376e+01    4.974262e+03    0.000000e+00
   4.131252e-03    1.660327e+04    3.998929e+00    1.659927e+04    0.000000e+00    3.095225e+03   -1.900618e+01    1.376528e+01    4.371853e+03    0.000000e+00
   4.860435e-03    1.296668e+04    3.680522e+00    1.296300e+04    0.000000e+00    2.623491e+03   -1.751329e+01    1.314913e+01    3.716183e+03    0.000000e+00
   5.648849e-03    1.031096e+04    3.408253e+00    1.030756e+04    0.000000e+00    2.250552e+03   -1.623486e+01    1.260857e+01    3.007255e+03    0.000000e+00
   6.496494e-03    8.327095e+03    3.175946e+00    8.323919e+03    0.000000e+00    1.950648e+03   -1.512751e+01    1.213656e+01    2.554537e+03    0.000000e+00
   7.403370e-03    6.815814e+03    2.965990e+00    6.812848e+03    0.000000e+00    1.705902e+03   -1.415879e+01    1.170090e+01    2.282691e+03    0.000000e+00
   8.369476e-03    5.644749e+03    2.789198e+00    5.641959e+03    0.000000e+00    1.503588e+03   -1.330403e+01    1.132623e+01    1.993090e+03    0.000000e+00
   9.394814e-03    4.723584e+03    2.627865e+00    4.720956e+03    0.000000e+00    1.334448e+03   -1.254405e+01    1.097768e+01    1.749346e+03    0.000000e+00
   1.047938e-02    3.989298e+03    2.482663e+00    3.986815e+03    0.000000e+00    1.191621e+03   -1.186376e+01    1.065802e+01    1.586762e+03    0.000000e+00
   1.162318e-02    3.396995e+03    2.351354e+00    3.394644e+03    0.000000e+00    1.069929e+03   -1.125113e+01    1.036442e+01    1.415299e+03    0.000000e+00
   1.282621e-02    2.914112e+03    2.234228e+00    2.911878e+03    0.000000e+00    9.654084e+02   -1.069643e+01    1.009796e+01    1.286855e+03    0.000000e+00
   1.408847e-02    2.516635e+03    2.129118e+00    2.514506e+03    0.000000e+00    8.749842e+02   -1.019172e+01    9.854657e+00    1.173297e+03    0.000000e+00
   1.540996e-02    2.186596e+03    2.036060e+00    2.184560e+03    0.000000e+00    7.962389e+02   -9.730440e+00    9.636705e+00    1.068180e+03    0.000000e+00
   1.679069e-02    1.910372e+03    1.945901e+00    1.908426e+03    0.000000e+00    7.272521e+02   -9.307143e+00    9.422054e+00    9.853461e+02    0.000000e+00
   1.823064e-02    1.677506e+03    1.863500e+00    1.675643e+03    0.000000e+00    6.664824e+02   -8.917257e+00    9.223363e+00    9.039259e+02    0.000000e+00
   1.972983e-02    1.479883e+03    1.787481e+00    1.478096e+03    0.000000e+00    6.126812e+02   -8.556916e+00    9.037622e+00    8.396616e+02    0.000000e+00
   2.128824e-02    1.311137e+03    1.716584e+00    1.309421e+03    0.000000e+00    5.648280e+02   -8.222830e+00    8.861847e+00    7.766851e+02    0.000000e+00
   2.290589e-02    1.166232e+03    1.650285e+00    1.164582e+03    0.000000e+00    5.220828e+02   -7.912184e+00    8.695609e+00    7.246582e+02    0.000000e+00
   2.458276e-02    1.041146e+03    1.589363e+00    1.039557e+03    0.000000e+00    4.837485e+02   -7.622554e+00    8.541110e+00    6.754499e+02    0.000000e+00
   2.631887e-02    9.326415e+02    1.531861e+00    9.311097e+02    0.000000e+00    4.492431e+02   -7.351838e+00    8.393445e+00    6.320026e+02    0.000000e+00
   2.811421e-02    8.380934e+02    1.478419e+00    8.366150e+02    0.000000e+00    4.180774e+02   -7.098210e+00    8.254558e+00    5.930836e+02    0.000000e+00
   2.996878e-02    7.553572e+02    1.427956e+00    7.539292e+02    0.000000e+00    3.898378e+02   -6.860070e+00    8.121911e+00    5.561819e+02    0.000000e+00
   3.188258e-02    6.826706e+02    1.380326e+00    6.812903e+02    0.000000e+00    3.641729e+02   -6.636014e+00    7.995330e+00    5.248011e+02    0.000000e+00
   3.385561e-02    6.185766e+02    1.335653e+00    6.172409e+02    0.000000e+00    3.407823e+02   -6.424806e+00    7.875351e+00    4.950770e+02    0.000000e+00
   3.588787e-02    5.618624e+02    1.293466e+00    5.605689e+02    0.000000e+00    3.194082e+02   -6.225350e+00    7.760890e+00    4.673051e+02    0.000000e+00
   3.797937e-02    5.115143e+02    1.253730e+00    5.102606e+02    0.000000e+00    2.998284e+02   -6.036672e+00    7.652008e+00    4.430939e+02    0.000000e+00
   4.013009e-02    4.666796e+02    1.215822e+00    4.654638e+02    0.000000e+00    2.818503e+02   -5.857902e+00    7.547119e+00    4.202701e+02    0.000000e+00
   4.234005e-02    4.266389e+02    1.180138e+00    4.254588e+02    0.000000e+00    2.653064e+02   -5.688267e+00    7.447438e+00    3.989579e+02    0.000000e+00
   4.460923e-02    3.907812e+02    1.146016e+00    3.896352e+02    0.000000e+00    2.500506e+02   -5.527068e+00    7.351216e+00    3.794172e+02    0.000000e+00
   4.693765e-02    3.585862e+02    1.113631e+00    3.574725e+02    0.000000e+00    2.359549e+02   -5.373680e+00    7.259034e+00    3.615998e+02    0.000000e+00
   4.932529e-02    3.296085e+02    1.082682e+00    3.285258e+02    0.000000e+00    2.229068e+02   -5.227535e+00    7.170114e+00    3.449035e+02    0.000000e+00
   5.177217e-02    3.034660e+02    1.053254e+00    3.024128e+02    0.000000e+00    2.108070e+02   -5.088124e+00    7.084769e+00    3.293011e+02    0.000000e+00
   5.427828e-02    2.798290e+02    1.025116e+00    2.788039e+02    0.000000e+00    1.995678e+02   -4.954982e+00    7.002401e+00    3.147372e+02    0.000000e+00
   5.684362e-02    2.584124e+02    9.982698e-01    2.574141e+02    0.000000e+00    1.891112e+02   -4.827687e+00    6.923070e+00    3.011443e+02    0.000000e+00
   5.946819e-02    2.389687e+02    9.725226e-01    2.379962e+02    0.000000e+00    1.793679e+02   -4.705856e+00    6.846267e+00    2.886013e+02    0.000000e+00
   6.215199e-02    2.212824e+02    9.477919e-01    2.203346e+02    0.000000e+00    1.702762e+02   -4.589137e+00    6.771837e+00    2.768350e+02    0.000000e+00
   6.489503e-02    2.051656e+02    9.241829e-01    2.042414e+02    0.000000e+00    1.617807e+02   -4.477210e+00    6.700411e+00    2.657819e+02    0.000000e+00
   6.769729e-02    1.904533e+02    9.014888e-01    1.895519e+02    0.000000e+00    1.538319e+02   -4.369780e+00    6.631101e+00    2.553936e+02    0.000000e+00
   7.055878e-02    1.770011e+02    8.797601e-01    1.761214e+02    0.000000e+00    1.463852e+02   -4.266578e+00    6.564099e+00    2.456221e+02    0.000000e+00
   7.347951e-02    1.646813e+02    8.588028e-01    1.638225e+02    0.000000e+00    1.394005e+02   -4.167354e+00    6.498847e+00    2.364216e+02    0.000000e+00
   7.645947e-02    1.533817e+02    8.386930e-01    1.525430e+02    0.000000e+00    1.328416e+02   -4.071881e+00    6.435767e+00    2.277489e+02    0.000000e+00
   7.949865e-02    1.430026e+02    8.192788e-01    1.421833e+02    0.000000e+00    1.266758e+02   -3.979944e+00    6.374542e+00    2.195638e+02    0.000000e+00
   8.259707e-02    1.334557e+02    8.005636e-01    1.326551e+02    0.000000e+00    1.208734e+02   -3.891350e+00    6.314928e+00    2.118293e+02    0.000000e+00
   8.575472e-02    1.246627e+02    7.825913e-01    1.238801e+02    0.000000e+00    1.154074e+02   -3.805917e+00    6.257090e+00    2.045112e+02    0.000000e+00
   8.897160e-02    1.165536e+02    7.652138e-01    1.157884e+02    0.000000e+00    1.102533e+02   -3.723477e+00    6.200822e+00    1.975783e+02    0.000000e+00
   9.224771e-02    1.090660e+02    7.484276e-01    1.083176e+02    0.000000e+00    1.053888e+02   -3.643874e+00    6.146139e+00    1.910021e+02    0.000000e+00
   9.558305e-02    1.021441e+02    7.322108e-01    1.014119e+02    0.000000e+00    1.007935e+02   -3.566963e+00    6.092749e+00    1.847565e+02    0.000000e+00
   9.897762e-02    9.573786e+01    7.164041e-01    9.502147e+01    0.000000e+00    9.644872e+01   -3.492607e+00    6.040188e+00    1.788483e+02    0.000000e+00
   1.024314e-01    8.980250e+01    7.013156e-01    8.910120e+01    0.000000e+00    9.233746e+01   -3.420682e+00    5.989915e+00    1.732344e+02    0.000000e+00
   1.059445e-01    8.429746e+01    6.866410e-01    8.361083e+01    0.000000e+00    8.844402e+01   -3.351069e+00    5.940449e+00    1.678839e+02    0.000000e+00
   1.095167e-01    7.918641e+01    6.724311e-01    7.851399e+01    0.000000e+00    8.475405e+01   -3.283659e+00    5.891973e+00    1.627784e+02    0.000000e+00
   1.131482e-01    7.443653e+01    6.586828e-01    7.377786e+01    0.000000e+00    8.125432e+01   -3.218348e+00    5.845012e+00    1.579012e+02    0.000000e+00
   1.168389e-01    7.001813e+01    6.453580e-01    6.937278e+01    0.000000e+00    7.793265e+01   -3.155039e+00    5.798997e+00    1.532508e+02    0.000000e+00
   1.205889e-01    6.590427e+01    6.323966e-01    6.527189e+01    0.000000e+00    7.477781e+01   -3.093642e+00    5.753715e+00    1.488278e+02    0.000000e+00
   1.243981e-01    6.207070e+01    6.198790e-01    6.145083e+01    0.000000e+00    7.177943e+01   -3.034073e+00    5.709970e+00    1.445881e+02    0.000000e+00
   1.282665e-01    5.849519e+01    6.076825e-01    5.788751e+01    0.000000e+00    6.892792e+01   -2.976249e+00    5.666828e+00    1.405202e+02    0.000000e+00
   1.321942e-01    5.515767e+01    5.958592e-01    5.456182e+01    0.000000e+00    6.621441e+01   -2.920098e+00    5.624609e+00    1.366403e+02    0.000000e+00
   1.361810e-01    5.203985e+01    5.843939e-01    5.145547e+01    0.000000e+00    6.363068e+01   -2.865547e+00    5.583553e+00    1.329229e+02    0.000000e+00
   1.402271e-01    4.912500e+01    5.732437e-01    4.855176e+01    0.000000e+00    6.116910e+01   -2.812530e+00    5.543113e+00    1.293453e+02    0.000000e+00
   1.443325e-01    4.639792e+01    5.624185e-01    4.583550e+01    0.000000e+00    5.882257e+01   -2.760984e+00    5.503652e+00    1.259257e+02    0.000000e+00
   1.484971e-01    4.384463e+01    5.518612e-01    4.329278e+01    0.000000e+00    5.658451e+01   -2.710850e+00    5.464883e+00    1.226384e+02    0.000000e+00
   1.527209e-01    4.145238e+01    5.415671e-01    4.091082e+01    0.000000e+00    5.444879e+01   -2.662069e+00    5.426592e+00    1.194719e+02    0.000000e+00
   1.570039e-01    3.920958e+01    5.316089e-01    3.867798e+01    0.000000e+00    5.240969e+01   -2.614592e+00    5.389556e+00    1.164409e+02    0.000000e+00
   1.613462e-01    3.710544e+01    5.219007e-01    3.658355e+01    0.000000e+00    5.046188e+01   -2.568365e+00    5.352950e+00    1.135103e+02    0.000000e+00
   1.657477e-01    3.513015e+01    5.124155e-01    3.461774e+01    0.000000e+00    4.860039e+01   -2.523341e+00    5.316991e+00    1.107031e+02    0.000000e+00
   1.702084e-01    3.327469e+01    5.031720e-01    3.277153e+01    0.000000e+00    4.682058e+01   -2.479475e+00    5.281686e+00    1.079870e+02    0.000000e+00
   1.747283e-01    3.153076e+01    4.941888e-01    3.103658e+01    0.000000e+00    4.511809e+01   -2.436725e+00    5.246955e+00    1.053791e+02    0.000000e+00
   1.793075e-01    2.989069e+01    4.854550e-01    2.940525e+01    0.000000e+00    4.348887e+01   -2.395049e+00    5.213144e+00    1.028536e+02    0.000000e+00
   1.839460e-01    2.834744e+01    4.769065e-01    2.787054e+01    0.000000e+00    4.192909e+01   -2.354409e+00    5.179565e+00    1.004273e+02    0.000000e+00
   1.886436e-01    2.689446e+01    4.685696e-01    2.642590e+01    0.000000e+00    4.043519e+01   -2.314766e+00    5.146756e+00    9.807571e+01    0.000000e+00
   1.934005e-01    2.552576e+01    4.604423e-01    2.506533e+01    0.000000e+00    3.900383e+01   -2.276087e+00    5.114386e+00    9.581063e+01    0.000000e+00
   1.982166e-01    2.423582e+01    4.525184e-01    2.378331e+01    0.000000e+00    3.763184e+01   -2.238338e+00    5.082608e+00    9.361819e+01    0.000000e+00
   2.030919e-01    2.301944e+01    4.447616e-01    2.257468e+01    0.000000e+00    3.631628e+01   -2.201487e+00    5.051280e+00    9.149601e+01    0.000000e+00
   2.080265e-01    2.187190e+01    4.372195e-01    2.143469e+01    0.000000e+00    3.505436e+01   -2.165503e+00    5.020465e+00    8.944797e+01    0.000000e+00
   2.130203e-01    2.078878e+01    4.298331e-01    2.035895e+01    0.000000e+00    3.384347e+01   -2.130358e+00    4.990201e+00    8.746164e+01    0.000000e+00
   2.180734e-01    1.976597e+01    4.226203e-01    1.934336e+01    0.000000e+00    3.268114e+01   -2.096024e+00    4.960193e+00    8.553732e+01    0.000000e+00
   2.231856e-01    1.879970e+01    4.155844e-01    1.838412e+01    0.000000e+00    3.156506e+01   -2.062474e+00    4.930936e+00    8.367677e+01    0.000000e+00
   2.283571e-01    1.788642e+01    4.086869e-01    1.747774e+01    0.000000e+00    3.049302e+01   -2.029683e+00    4.901787e+00    8.187103e+01    0.000000e+00
   2.335879e-01    1.702288e+01    4.019661e-01    1.662092e+01    0.000000e+00    2.946298e+01   -1.997627e+00    4.873353e+00    8.011838e+01    0.000000e+00
   2.388778e-01    1.620600e+01    3.953829e-01    1.581063e+01    0.000000e+00    2.847297e+01   -1.966282e+00    4.845099e+00    7.841946e+01    0.000000e+00
   2.442270e-01    1.543296e+01    3.889476e-01    1.504402e+01    0.000000e+00    2.752115e+01   -1.935627e+00    4.817384e+00    7.677177e+01    0.000000e+00
   2.496354e-01    1.470111e+01    3.826510e-01    1.431846e+01    0.000000e+00    2.660579e+01   -1.905640e+00    4.789934e+00    7.517091e+01    0.000000e+00
   2.551031e-01    1.400800e+01    3.764955e-01    1.363151e+01    0.000000e+00    2.572523e+01   -1.876301e+00    4.762946e+00    7.361524e+01    0.000000e+00
   2.606300e-01    1.335131e+01    3.704800e-01    1.298084e+01    0.000000e+00    2.487791e+01   -1.847591e+00    4.736294e+00    7.210315e+01    0.000000e+00
   2.662161e-01    1.272890e+01    3.645740e-01    1.236433e+01    0.000000e+00    2.406236e+01   -1.819490e+00    4.709943e+00    7.063304e+01    0.000000e+00
   2.718614e-01    1.213878e+01    3.588149e-01    1.177997e+01    0.000000e+00    2.327718e+01   -1.791980e+00    4.684005e+00    6.920452e+01    0.000000e+00
   2.775660e-01    1.157907e+01    3.531565e-01    1.122591e+01    0.000000e+00    2.252104e+01   -1.765045e+00    4.658308e+00    6.781492e+01    0.000000e+00
   2.833298e-01    1.104800e+01    3.476264e-01    1.070038e+01    0.000000e+00    2.179268e+01   -1.738668e+00    4.632988e+00    6.646233e+01    0.000000e+00
   2.891528e-01    1.054397e+01    3.422056e-01    1.020177e+01    0.000000e+00    2.109092e+01   -1.712833e+00    4.607930e+00    6.514537e+01    0.000000e+00
   2.950351e-01    1.006542e+01    3.369084e-01    9.728521e+00    0.000000e+00    2.041461e+01   -1.687524e+00    4.583255e+00    6.386274e+01    0.000000e+00
   3.009766e-01    9.610928e+00    3.317016e-01    9.279232e+00    0.000000e+00    1.976268e+01   -1.662727e+00    4.558764e+00    6.261314e+01    0.000000e+00
   3.069773e-01    9.179139e+00    3.266142e-01    8.852530e+00    0.000000e+00    1.913412e+01   -1.638428e+00    4.534651e+00    6.139535e+01    0.000000e+00
   3.130373e-01    8.768795e+00    3.216145e-01    8.447186e+00    0.000000e+00    1.852794e+01   -1.614613e+00    4.510719e+00    6.020819e+01    0.000000e+00
   3.191565e-01    8.378715e+00    3.167267e-01    8.061993e+00    0.000000e+00    1.794321e+01   -1.591268e+00    4.487137e+00    5.905052e+01    0.000000e+00
   3.253349e-01    8.007788e+00    3.119263e-01    7.695866e+00    0.000000e+00    1.737907e+01   -1.568381e+00    4.463750e+00    5.792124e+01    0.000000e+00
   3.315726e-01    7.654970e+00    3.072262e-01    7.347748e+00    0.000000e+00    1.683468e+01   -1.545941e+00    4.440662e+00    5.681932e+01    0.000000e+00
   3.378694e-01    7.319281e+00    3.026130e-01    7.016673e+00    0.000000e+00    1.630922e+01   -1.523934e+00    4.417788e+00    5.574375e+01    0.000000e+00
   3.442256e-01    6.999800e+00    2.980876e-01    6.701717e+00    0.000000e+00    1.580195e+01   -1.502350e+00    4.395147e+00    5.469449e+01    0.000000e+00
   3.506409e-01    6.695667e+00    2.936561e-01    6.402015e+00    0.000000e+00    1.531214e+01   -1.481178e+00    4.372781e+00    5.366979e+01    0.000000e+00
   3.571155e-01    6.406064e+00    2.893034e-01    6.116765e+00    0.000000e+00    1.483910e+01   -1.460407e+00    4.350588e+00    5.266874e+01    0.000000e+00
   3.636493e-01    6.130219e+00    2.850359e-01    5.845188e+00    0.000000e+00    1.438217e+01   -1.440026e+00    4.328670e+00    5.169049e+01    0.000000e+00
   3.702423e-01    5.867422e+00    2.808457e-01    5.586581e+00    0.000000e+00    1.394071e+01   -1.420027e+00    4.306892e+00    5.073423e+01    0.000000e+00
   3.768946e-01    5.616982e+00    2.767349e-01    5.340252e+00    0.000000e+00    1.351413e+01   -1.400399e+00    4.285405e+00    4.979947e+01    0.000000e+00
   3.836061e-01    5.378267e+00    2.727023e-01    5.105569e+00    0.000000e+00    1.310186e+01   -1.381134e+00    4.264029e+00    4.888628e+01    0.000000e+00
   3.903768e-01    5.150666e+00    2.687382e-01    4.881932e+00    0.000000e+00    1.270335e+01   -1.362221e+00    4.242943e+00    4.799286e+01    0.000000e+00
   3.972068e-01    4.933618e+00    2.648560e-01    4.668766e+00    0.000000e+00    1.231807e+01   -1.343654e+00    4.221947e+00    4.711854e+01    0.000000e+00
   4.040960e-01    4.726576e+00    2.610349e-01    4.465545e+00    0.000000e+00    1.194552e+01   -1.325422e+00    4.201259e+00    4.626337e+01    0.000000e+00
   4.110444e-01    4.529039e+00    2.572865e-01    4.271757e+00    0.000000e+00    1.158522e+01   -1.307519e+00    4.180587e+00    4.542682e+01    0.000000e+00
   4.180521e-01    4.340530e+00    2.536097e-01    4.086924e+00    0.000000e+00    1.123672e+01   -1.289936e+00    4.160307e+00    4.460751e+01    0.000000e+00
   4.251189e-01    4.160592e+00    2.499919e-01    3.910604e+00    0.000000e+00    1.089958e+01   -1.272666e+00    4.140001e+00    4.380559e+01    0.000000e+00
   4.322451e-01    3.988798e+00    2.464412e-01    3.742361e+00    0.000000e+00    1.057337e+01   -1.255701e+00    4.120010e+00    4.302058e+01    0.000000e+00
   4.394304e-01    3.824747e+00    2.429528e-01    3.581798e+00    0.000000e+00    1.025771e+01   -1.239034e+00    4.100076e+00    4.225117e+01    0.000000e+00
   4.466750e-01    3.668055e+00    2.395230e-01    3.428536e+00    0.000000e+00    9.952188e+00   -1.222659e+00    4.080360e+00    4.149825e+01    0.000000e+00
   4.539788e-01    3.518364e+00    2.361573e-01    3.282210e+00    0.000000e+00    9.656453e+00   -1.206569e+00    4.060777e+00    4.076006e+01    0.000000e+00
   4.613418e-01    3.375329e+00    2.328489e-01    3.142484e+00    0.000000e+00    9.370147e+00   -1.190756e+00    4.041345e+00    4.003699e+01    0.000000e+00
   4.687641e-01    3.238628e+00    2.295953e-01    3.009036e+00    0.000000e+00    9.092931e+00   -1.175216e+00    4.022075e+00    3.932818e+01    0.000000e+00
   4.762456e-01    3.107954e+00    2.263999e-01    2.881558e+00    0.000000e+00    8.824481e+00   -1.159941e+00    4.002896e+00    3.863346e+01    0.000000e+00
