 # material = aluminum                
 # eff mass density (g/cc) =    2.70000000000000     
 # Zbar =    3.00051477906058     
#  All densities are *4*pi*r^2
#            r(a_B)                    ne_pa                     ne_scr                    ne_ion                   ne_full                   ne_ext 
        0.22315875582E-006        0.86976814378E-009        0.26381516404E-011        0.86712999214E-009        0.86977106405E-009        0.29202734635E-014
        0.89263502326E-006        0.13916290300E-007        0.42210426247E-010        0.13874079874E-007        0.13916337025E-007        0.46724375415E-013
        0.20084288023E-005        0.70482933169E-007        0.21378646916E-009        0.70269146700E-007        0.70483169824E-007        0.23665474384E-012
        0.35705400931E-005        0.22279838159E-006        0.67578454962E-009        0.22212259704E-006        0.22279912969E-006        0.74810133785E-012
        0.55789688954E-005        0.54396973680E-006        0.16499505958E-008        0.54231978620E-006        0.54397156341E-006        0.18266089897E-011
        0.80337152094E-005        0.11279699656E-005        0.34213200823E-008        0.11245486455E-005        0.11279737535E-005        0.37878779894E-011
        0.10934779035E-004        0.20896215752E-005        0.63381684562E-008        0.20832834067E-005        0.20896285929E-005        0.70177641929E-011
        0.14282160372E-004        0.35645766337E-005        0.10811950466E-007        0.35537646832E-005        0.35645886060E-005        0.11972279048E-010
        0.18075859221E-004        0.57092931595E-005        0.17317228458E-007        0.56919759310E-005        0.57093123370E-005        0.19177589604E-010
        0.22315875582E-004        0.87010078856E-005        0.26391589670E-007        0.86746162959E-005        0.87010371156E-005        0.29230018513E-010
        0.27002209454E-004        0.12737705406E-004        0.38635552527E-007        0.12699069854E-004        0.12737748203E-004        0.42796044031E-010
        0.32134860838E-004        0.18038083711E-004        0.54712461962E-007        0.17983371249E-004        0.18038144323E-004        0.60612300021E-010
        0.37713829733E-004        0.24841516107E-004        0.75348373778E-007        0.24766167734E-004        0.24841599593E-004        0.83485575951E-010
        0.43739116140E-004        0.33408009549E-004        0.10133192806E-006        0.33306677621E-004        0.33408121842E-004        0.11229281690E-009
        0.50210720059E-004        0.44018159365E-004        0.13351421168E-006        0.43884645153E-004        0.44018307346E-004        0.14798112354E-009
        0.57128641489E-004        0.56973100399E-004        0.17280860986E-006        0.56800291789E-004        0.56973291966E-004        0.19156775216E-009
        0.64492880431E-004        0.72594454579E-004        0.22019064690E-006        0.72374263932E-004        0.72594698719E-004        0.24414011466E-009
        0.72303436884E-004        0.91224274908E-004        0.27669781605E-006        0.90947577092E-004        0.91224581764E-004        0.30685577855E-009
        0.80560310850E-004        0.11322498590E-003        0.34342939848E-006        0.11288155650E-003        0.11322536684E-003        0.38094246693E-009
        0.89263502326E-004        0.13897932045E-003        0.42154627153E-006        0.13855777418E-003        0.13897978815E-003        0.46769805853E-009
        0.98413011315E-004        0.16889025319E-003        0.51227070613E-006        0.16837798249E-003        0.16889082168E-003        0.56849058767E-009
        0.10800883781E-003        0.20338093030E-003        0.61688615352E-006        0.20276404414E-003        0.20338161506E-003        0.68475824431E-009
        0.11805098183E-003        0.24289459576E-003        0.73673702123E-006        0.24215785874E-003        0.24289541377E-003        0.81800937399E-009
        0.12853944335E-003        0.28789451419E-003        0.87322843836E-006        0.28702128575E-003        0.28789548401E-003        0.96982247789E-009
        0.13947422239E-003        0.33886389010E-003        0.10278260103E-005        0.33783606409E-003        0.33886503195E-003        0.11418462128E-008
        0.15085531893E-003        0.39630578372E-003        0.12020555627E-005        0.39510372816E-003        0.39630711952E-003        0.13357993911E-008
        0.16268273299E-003        0.46074302333E-003        0.13975028750E-005        0.45934552045E-003        0.46074457680E-003        0.15534709808E-008
        0.17495646456E-003        0.53271811414E-003        0.16158134035E-005        0.53110230074E-003        0.53271991086E-003        0.17967201056E-008
        0.18767651364E-003        0.61279314376E-003        0.18586919936E-005        0.61093445177E-003        0.61279521124E-003        0.20674760447E-008
        0.20084288023E-003        0.70154968423E-003        0.21279025821E-005        0.69942178165E-003        0.70155205197E-003        0.23677382331E-008
        0.21445556434E-003        0.79958869061E-003        0.24252678886E-005        0.79716342272E-003        0.79959139019E-003        0.26995762611E-008
        0.22851456596E-003        0.90753039624E-003        0.27526690971E-005        0.90477772715E-003        0.90753346137E-003        0.30651298751E-008
        0.24301988508E-003        0.10260142046E-002        0.31120455265E-005        0.10229021591E-002        0.10260176712E-002        0.34666089768E-008
        0.25797152172E-003        0.11556985778E-002        0.35053942920E-005        0.11521931835E-002        0.11557024841E-002        0.39062936236E-008
        0.27336947587E-003        0.12972609216E-002        0.39347699549E-005        0.12933261517E-002        0.12972653082E-002        0.43865340287E-008
        0.28921374754E-003        0.14513974678E-002        0.44022841635E-005        0.14469951836E-002        0.14514023775E-002        0.49097505606E-008
        0.30550433671E-003        0.16188231518E-002        0.49101052832E-005        0.16139130466E-002        0.16188286303E-002        0.54784337439E-008
        0.32224124340E-003        0.18002714891E-002        0.54604580170E-005        0.17948110311E-002        0.18002775842E-002        0.60951442586E-008
        0.33942446760E-003        0.19964944461E-002        0.60556230153E-005        0.19904388231E-002        0.19965012087E-002        0.67625129404E-008
        0.35705400931E-003        0.22082623099E-002        0.66979364766E-005        0.22015643734E-002        0.22082697931E-002        0.74832407808E-008
        0.37512986853E-003        0.24363635530E-002        0.73897897380E-005        0.24289737633E-002        0.24363718131E-002        0.82600989267E-008
        0.39365204526E-003        0.26816046963E-002        0.81336288556E-005        0.26734710675E-002        0.26816137922E-002        0.90959286810E-008
        0.41262053950E-003        0.29448101680E-002        0.89319541758E-005        0.29358782138E-002        0.29448201616E-002        0.99936415021E-008
        0.43203535126E-003        0.32268221596E-002        0.97873198965E-005        0.32170348397E-002        0.32268331158E-002        0.10956219004E-007
        0.45189648053E-003        0.35285004789E-002        0.10702333618E-004        0.35177981453E-002        0.35285124657E-002        0.11986712958E-007
        0.47220392731E-003        0.38507224000E-002        0.11679655888E-004        0.38390427441E-002        0.38507354882E-002        0.13088245287E-007
        0.49295769160E-003        0.41943825094E-002        0.12721999729E-004        0.41816605097E-002        0.41943967734E-002        0.14264008075E-007
        0.51415777340E-003        0.45603925505E-002        0.13832130167E-004        0.45465604204E-002        0.45604080678E-002        0.15517263558E-007
        0.53580417271E-003        0.49496812638E-002        0.15012863742E-004        0.49346684000E-002        0.49496981151E-002        0.16851344129E-007
        0.55789688954E-003        0.53631942243E-002        0.16267068015E-004        0.53469271563E-002        0.53632124940E-002        0.18269652337E-007
        0.58043592388E-003        0.58018936769E-002        0.17597661062E-004        0.57842960159E-002        0.58019134526E-002        0.19775660886E-007
        0.60342127573E-003        0.62667583675E-002        0.19007610958E-004        0.62477507565E-002        0.62667797404E-002        0.21372912637E-007
        0.62685294509E-003        0.67587833720E-002        0.20499935262E-004        0.67382834367E-002        0.67588064370E-002        0.23065020606E-007
        0.65073093196E-003        0.72789799222E-002        0.22077700478E-004        0.72569022218E-002        0.72790047779E-002        0.24855667964E-007
        0.67505523634E-003        0.78283752292E-002        0.23744021517E-004        0.78046312077E-002        0.78284019778E-002        0.26748608040E-007
        0.69982585824E-003        0.84080123028E-002        0.25502061148E-004        0.83825102417E-002        0.84080410505E-002        0.28747664318E-007
        0.72504279765E-003        0.90189497699E-002        0.27355029441E-004        0.89915947404E-002        0.90189806266E-002        0.30856730437E-007
        0.75070605457E-003        0.96622616882E-002        0.29306183199E-004        0.96329555050E-002        0.96622947680E-002        0.33079770193E-007
        0.77681562900E-003        0.10339037359E-001        0.31358825385E-004        0.10307678534E-001        0.10339072780E-001        0.35420817538E-007
        0.80337152094E-003        0.11050381135E-001        0.33516304534E-004        0.11016864831E-001        0.11050419019E-001        0.37883976579E-007
        0.83037373039E-003        0.11797412230E-001        0.35782014169E-004        0.11761630215E-001        0.11797452703E-001        0.40473421579E-007
        0.85782225736E-003        0.12581264516E-001        0.38159392190E-004        0.12543105124E-001        0.12581307710E-001        0.43193396959E-007
        0.88571710183E-003        0.13403086334E-001        0.40651920279E-004        0.13362434414E-001        0.13403132383E-001        0.46048217295E-007
        0.91405826382E-003        0.14264040285E-001        0.43263123270E-004        0.14220777161E-001        0.14264089327E-001        0.49042267317E-007
        0.94284574332E-003        0.15165303026E-001        0.45996568536E-004        0.15119306458E-001        0.15165355206E-001        0.52180001915E-007
        0.97207954033E-003        0.16108065071E-001        0.48855865349E-004        0.16059209206E-001        0.16108120537E-001        0.55465946132E-007
        0.10017596549E-002        0.17093530574E-001        0.51844664245E-004        0.17041685910E-001        0.17093589479E-001        0.58904695169E-007
        0.10318860869E-002        0.18122917122E-001        0.54966656373E-004        0.18067950465E-001        0.18122979622E-001        0.62500914382E-007
        0.10624588364E-002        0.19197455517E-001        0.58225572842E-004        0.19139229945E-001        0.19197521777E-001        0.66259339285E-007
        0.10934779035E-002        0.20318389568E-001        0.61625184056E-004        0.20256764383E-001        0.20318459752E-001        0.70184775547E-007
        0.11249432881E-002        0.21486975861E-001        0.65169299045E-004        0.21421806562E-001        0.21487050143E-001        0.74282098992E-007
        0.11568549902E-002        0.22704483549E-001        0.68861764788E-004        0.22635621785E-001        0.22704562106E-001        0.78556255605E-007
        0.11892130097E-002        0.23972194122E-001        0.72706465527E-004        0.23899487657E-001        0.23972277135E-001        0.83012261522E-007
        0.12220173468E-002        0.25291401184E-001        0.76707322077E-004        0.25214693862E-001        0.25291488839E-001        0.87655203040E-007
        0.12552680015E-002        0.26663410225E-001        0.80868291124E-004        0.26582541934E-001        0.26663502715E-001        0.92490236609E-007
        0.12889649736E-002        0.28089538390E-001        0.85193364521E-004        0.28004345025E-001        0.28089635912E-001        0.97522588839E-007
        0.13231082632E-002        0.29571114250E-001        0.89686568579E-004        0.29481427682E-001        0.29571217008E-001        0.10275755649E-006
        0.13576978704E-002        0.31109477567E-001        0.94351963342E-004        0.31015125603E-001        0.31109585767E-001        0.10820050649E-006
        0.13927337950E-002        0.32705979054E-001        0.99193641863E-004        0.32606785412E-001        0.32706092911E-001        0.11385687592E-006
        0.14282160372E-002        0.34361980143E-001        0.10421572948E-003        0.34257764414E-001        0.34362099875E-001        0.11973217201E-006
        0.14641445969E-002        0.36078852742E-001        0.10942238305E-003        0.35969430358E-001        0.36078978574E-001        0.12583197215E-006
        0.15005194741E-002        0.37857978990E-001        0.11481779025E-003        0.37743161200E-001        0.37858111152E-001        0.13216192389E-006
        0.15373406688E-002        0.39700751021E-001        0.12040616879E-003        0.39580344852E-001        0.39700889748E-001        0.13872774495E-006
        0.15746081810E-002        0.41608570708E-001        0.12619176566E-003        0.41482378943E-001        0.41608716243E-001        0.14553522317E-006
        0.16123220108E-002        0.43582849425E-001        0.13217885639E-003        0.43450670569E-001        0.43583002016E-001        0.15259021659E-006
        0.16504821580E-002        0.45625007791E-001        0.13837174425E-003        0.45486636047E-001        0.45625167690E-001        0.15989865338E-006
        0.16890886228E-002        0.47736475422E-001        0.14477475949E-003        0.47591700663E-001        0.47736642889E-001        0.16746653188E-006
        0.17281414050E-002        0.49918690677E-001        0.15139225858E-003        0.49767298418E-001        0.49918865977E-001        0.17529992058E-006
        0.17676405048E-002        0.52173100403E-001        0.15822862339E-003        0.52014871780E-001        0.52173283808E-001        0.18340495812E-006
        0.18075859221E-002        0.54501159682E-001        0.16528826042E-003        0.54335871421E-001        0.54501351470E-001        0.19178785333E-006
        0.18479776569E-002        0.56904331568E-001        0.17257560001E-003        0.56731755968E-001        0.56904532023E-001        0.20045488516E-006
        0.18888157092E-002        0.59384086833E-001        0.18009509552E-003        0.59203991737E-001        0.59384296245E-001        0.20941240274E-006
        0.19301000791E-002        0.61941903703E-001        0.18785122253E-003        0.61754052480E-001        0.61942122369E-001        0.21866682535E-006
        0.19718307664E-002        0.64579267596E-001        0.19584847805E-003        0.64383419118E-001        0.64579495821E-001        0.22822464243E-006
        0.20140077712E-002        0.67297670861E-001        0.20409137967E-003        0.67093579482E-001        0.67297908954E-001        0.23809241358E-006
        0.20566310936E-002        0.70098612511E-001        0.21258446478E-003        0.69886028046E-001        0.70098860787E-001        0.24827676855E-006
        0.20997007335E-002        0.72983597953E-001        0.22133228970E-003        0.72762265664E-001        0.72983856738E-001        0.25878440726E-006
        0.21432166909E-002        0.75954138730E-001        0.23033942891E-003        0.75723799301E-001        0.75954408352E-001        0.26962209978E-006
        0.21871789658E-002        0.79011752242E-001        0.23961047415E-003        0.78772141768E-001        0.79012033039E-001        0.28079668635E-006
        0.22315875582E-002        0.82157961483E-001        0.24915003364E-003        0.81908811449E-001        0.82158253798E-001        0.29231507735E-006
        0.22764424681E-002        0.85394294764E-001        0.25896273120E-003        0.85135332033E-001        0.85394598948E-001        0.30418425333E-006
        0.23217436955E-002        0.88722285447E-001        0.26905320545E-003        0.88453232242E-001        0.88722601859E-001        0.31641126500E-006
        0.23674912405E-002        0.92143471668E-001        0.27942610890E-003        0.91864045559E-001        0.92143800671E-001        0.32900323324E-006
        0.24136851029E-002        0.95659396060E-001        0.29008610716E-003        0.95369309953E-001        0.95659738028E-001        0.34196734906E-006
        0.24603252829E-002        0.99271605485E-001        0.30103787805E-003        0.98970567607E-001        0.99271960796E-001        0.35531087365E-006
        0.25074117803E-002        0.10298165075E+000        0.31228611073E-003        0.10266936464E+000        0.10298201979E+000        0.36904113837E-006
        0.25549445953E-002        0.10679108633E+000        0.32383550490E-003        0.10646725083E+000        0.10679146950E+000        0.38316554470E-006
        0.26029237278E-002        0.11070147011E+000        0.33569076984E-003        0.11036577934E+000        0.11070186780E+000        0.39769156433E-006
        0.26513491779E-002        0.11471436307E+000        0.34785662365E-003        0.11436650644E+000        0.11471477569E+000        0.41262673907E-006
        0.27002209454E-002        0.11883132902E+000        0.36033779228E-003        0.11847099123E+000        0.11883175700E+000        0.42797868091E-006
        0.27495390304E-002        0.12305393435E+000        0.37313900873E-003        0.12268079534E+000        0.12305437810E+000        0.44375507200E-006
        0.27993034330E-002        0.12738374770E+000        0.38626501214E-003        0.12699748268E+000        0.12738420766E+000        0.45996366465E-006
        0.28495141530E-002        0.13182233971E+000        0.39972054693E-003        0.13142261916E+000        0.13182281632E+000        0.47661228132E-006
        0.29001711906E-002        0.13637128273E+000        0.41351036188E-003        0.13595777237E+000        0.13637177644E+000        0.49370881464E-006
        0.29512745457E-002        0.14103215055E+000        0.42763920932E-003        0.14060451134E+000        0.14103266181E+000        0.51126122740E-006
        0.30028242183E-002        0.14580651807E+000        0.44211184416E-003        0.14536440622E+000        0.14580704734E+000        0.52927755255E-006
        0.30548202084E-002        0.15069596107E+000        0.45693302309E-003        0.15023902805E+000        0.15069650884E+000        0.54776589321E-006
        0.31072625160E-002        0.15570205592E+000        0.47210750361E-003        0.15522994842E+000        0.15570262265E+000        0.56673442264E-006
        0.31601511411E-002        0.16082637925E+000        0.48764004321E-003        0.16033873921E+000        0.16082696544E+000        0.58619138430E-006
        0.32134860838E-002        0.16607050772E+000        0.50353539845E-003        0.16556697233E+000        0.16607111387E+000        0.60614509177E-006
        0.32672673439E-002        0.17143601771E+000        0.51979832405E-003        0.17091621938E+000        0.17143664431E+000        0.62660392881E-006
        0.33214949216E-002        0.17692448502E+000        0.53643357204E-003        0.17638805144E+000        0.17692513259E+000        0.64757634936E-006
        0.33761688167E-002        0.18253748460E+000        0.55344589082E-003        0.18198403871E+000        0.18253815368E+000        0.66907087750E-006
        0.34312890294E-002        0.18827659030E+000        0.57084002429E-003        0.18770575028E+000        0.18827728140E+000        0.69109610747E-006
        0.34868555596E-002        0.19414337452E+000        0.58862071098E-003        0.19355475381E+000        0.19414408818E+000        0.71366070369E-006
