# All units in [AU] if not specified
{"name":"Al", "Z":13, "Zstar":4.600222849413861, "A":28,  "μ[AU]": 2.598e-01, "T[AU]": 3.675e-02, "rs[AU]": 3.000e+00 }
	 r[AU]  	 n[AU]  	 nf[AU]  	 nb[AU]     n_ion[AU]    (φ_e+φ_ions)[AU]   φtotal[AU]     δVxc/δρ[Au]  
   2.000000e-02    1.458328e+03    2.299509e+00    1.455770e+03    4.014235e-07   -4.268996e+01    6.068767e+02   -8.515707e+00
   2.014695e-02    1.441441e+03    2.290595e+00    1.438896e+03    4.014235e-07   -4.267798e+01    6.021477e+02   -8.483140e+00
   2.029498e-02    1.424745e+03    2.281711e+00    1.422211e+03    4.014235e-07   -4.266569e+01    5.974536e+02   -8.450687e+00
   2.044409e-02    1.408235e+03    2.272859e+00    1.405714e+03    4.014235e-07   -4.265311e+01    5.927941e+02   -8.418348e+00
   2.059430e-02    1.391911e+03    2.264038e+00    1.389401e+03    4.014235e-07   -4.264021e+01    5.881690e+02   -8.386120e+00
   2.074562e-02    1.375769e+03    2.255247e+00    1.373271e+03    4.014235e-07   -4.262702e+01    5.835780e+02   -8.354004e+00
   2.089804e-02    1.359807e+03    2.246487e+00    1.357321e+03    4.014235e-07   -4.261352e+01    5.790210e+02   -8.321999e+00
   2.105159e-02    1.344025e+03    2.237757e+00    1.341551e+03    4.014235e-07   -4.259973e+01    5.744975e+02   -8.290104e+00
   2.120626e-02    1.328420e+03    2.229058e+00    1.325957e+03    4.014235e-07   -4.258563e+01    5.700075e+02   -8.258322e+00
   2.136207e-02    1.312990e+03    2.220389e+00    1.310539e+03    4.014235e-07   -4.257124e+01    5.655505e+02   -8.226651e+00
   2.151903e-02    1.297733e+03    2.211751e+00    1.295293e+03    4.014235e-07   -4.255655e+01    5.611266e+02   -8.195088e+00
   2.167714e-02    1.282647e+03    2.203142e+00    1.280218e+03    4.014235e-07   -4.254156e+01    5.567352e+02   -8.163634e+00
   2.183641e-02    1.267730e+03    2.194563e+00    1.265313e+03    4.014235e-07   -4.252628e+01    5.523763e+02   -8.132289e+00
   2.199685e-02    1.252981e+03    2.186015e+00    1.250575e+03    4.014235e-07   -4.251070e+01    5.480497e+02   -8.101054e+00
   2.215847e-02    1.238397e+03    2.177495e+00    1.236002e+03    4.014235e-07   -4.249483e+01    5.437549e+02   -8.069927e+00
   2.232128e-02    1.223978e+03    2.169006e+00    1.221593e+03    4.014235e-07   -4.247867e+01    5.394919e+02   -8.038908e+00
   2.248528e-02    1.209720e+03    2.160546e+00    1.207346e+03    4.014235e-07   -4.246221e+01    5.352604e+02   -8.007996e+00
   2.265049e-02    1.195621e+03    2.152115e+00    1.193260e+03    4.014235e-07   -4.244546e+01    5.310602e+02   -7.977191e+00
   2.281691e-02    1.181682e+03    2.143714e+00    1.179331e+03    4.014235e-07   -4.242843e+01    5.268911e+02   -7.946492e+00
   2.298456e-02    1.167899e+03    2.135342e+00    1.165559e+03    4.014235e-07   -4.241110e+01    5.227527e+02   -7.915900e+00
   2.315343e-02    1.154271e+03    2.126999e+00    1.151942e+03    4.014235e-07   -4.239349e+01    5.186450e+02   -7.885415e+00
   2.332355e-02    1.140797e+03    2.118685e+00    1.138478e+03    4.014235e-07   -4.237559e+01    5.145676e+02   -7.855034e+00
   2.349492e-02    1.127474e+03    2.110399e+00    1.125166e+03    4.014235e-07   -4.235741e+01    5.105204e+02   -7.824759e+00
   2.366755e-02    1.114300e+03    2.102143e+00    1.112003e+03    4.014235e-07   -4.233893e+01    5.065031e+02   -7.794587e+00
   2.384144e-02    1.101274e+03    2.093915e+00    1.098989e+03    4.014235e-07   -4.232018e+01    5.025156e+02   -7.764520e+00
   2.401661e-02    1.088396e+03    2.085716e+00    1.086121e+03    4.014235e-07   -4.230114e+01    4.985575e+02   -7.734557e+00
   2.419307e-02    1.075663e+03    2.077545e+00    1.073397e+03    4.014235e-07   -4.228182e+01    4.946287e+02   -7.704699e+00
   2.437083e-02    1.063073e+03    2.069402e+00    1.060818e+03    4.014235e-07   -4.226221e+01    4.907291e+02   -7.674943e+00
   2.454989e-02    1.050624e+03    2.061288e+00    1.048380e+03    4.014235e-07   -4.224233e+01    4.868583e+02   -7.645290e+00
   2.473027e-02    1.038316e+03    2.053201e+00    1.036082e+03    4.014235e-07   -4.222217e+01    4.830161e+02   -7.615739e+00
   2.491197e-02    1.026146e+03    2.045143e+00    1.023923e+03    4.014235e-07   -4.220172e+01    4.792024e+02   -7.586289e+00
   2.509501e-02    1.014114e+03    2.037113e+00    1.011900e+03    4.014235e-07   -4.218100e+01    4.754169e+02   -7.556942e+00
   2.527939e-02    1.002217e+03    2.029110e+00    1.000014e+03    4.014235e-07   -4.216000e+01    4.716595e+02   -7.527697e+00
   2.546513e-02    9.904550e+02    2.021136e+00    9.882614e+02    4.014235e-07   -4.213872e+01    4.679299e+02   -7.498552e+00
   2.565223e-02    9.788251e+02    2.013188e+00    9.766415e+02    4.014235e-07   -4.211717e+01    4.642280e+02   -7.469507e+00
   2.584071e-02    9.673262e+02    2.005269e+00    9.651528e+02    4.014235e-07   -4.209534e+01    4.605535e+02   -7.440563e+00
   2.603057e-02    9.559571e+02    1.997376e+00    9.537938e+02    4.014235e-07   -4.207323e+01    4.569062e+02   -7.411718e+00
   2.622183e-02    9.447161e+02    1.989511e+00    9.425630e+02    4.014235e-07   -4.205086e+01    4.532859e+02   -7.382972e+00
   2.641449e-02    9.336025e+02    1.981674e+00    9.314591e+02    4.014235e-07   -4.202821e+01    4.496925e+02   -7.354326e+00
   2.660857e-02    9.226145e+02    1.973863e+00    9.204807e+02    4.014235e-07   -4.200528e+01    4.461258e+02   -7.325779e+00
   2.680407e-02    9.117505e+02    1.966079e+00    9.096263e+02    4.014235e-07   -4.198209e+01    4.425855e+02   -7.297330e+00
   2.700101e-02    9.010092e+02    1.958322e+00    8.988947e+02    4.014235e-07   -4.195863e+01    4.390714e+02   -7.268979e+00
   2.719940e-02    8.903891e+02    1.950592e+00    8.882844e+02    4.014235e-07   -4.193489e+01    4.355835e+02   -7.240725e+00
   2.739925e-02    8.798890e+02    1.942889e+00    8.777941e+02    4.014235e-07   -4.191089e+01    4.321214e+02   -7.212568e+00
   2.760056e-02    8.695075e+02    1.935212e+00    8.674224e+02    4.014235e-07   -4.188661e+01    4.286850e+02   -7.184508e+00
   2.780335e-02    8.592439e+02    1.927562e+00    8.571682e+02    4.014235e-07   -4.186207e+01    4.252741e+02   -7.156545e+00
   2.800764e-02    8.490965e+02    1.919938e+00    8.470300e+02    4.014235e-07   -4.183727e+01    4.218885e+02   -7.128679e+00
   2.821342e-02    8.390638e+02    1.912341e+00    8.370066e+02    4.014235e-07   -4.181219e+01    4.185281e+02   -7.100908e+00
   2.842071e-02    8.291447e+02    1.904770e+00    8.270968e+02    4.014235e-07   -4.178685e+01    4.151927e+02   -7.073233e+00
   2.862953e-02    8.193377e+02    1.897224e+00    8.172992e+02    4.014235e-07   -4.176125e+01    4.118820e+02   -7.045652e+00
   2.883988e-02    8.096418e+02    1.889705e+00    8.076127e+02    4.014235e-07   -4.173538e+01    4.085959e+02   -7.018166e+00
   2.905178e-02    8.000557e+02    1.882212e+00    7.980360e+02    4.014235e-07   -4.170925e+01    4.053343e+02   -6.990774e+00
   2.926524e-02    7.905781e+02    1.874745e+00    7.885679e+02    4.014235e-07   -4.168286e+01    4.020968e+02   -6.963476e+00
   2.948026e-02    7.812085e+02    1.867303e+00    7.792071e+02    4.014235e-07   -4.165620e+01    3.988835e+02   -6.936273e+00
   2.969686e-02    7.719450e+02    1.859887e+00    7.699526e+02    4.014235e-07   -4.162928e+01    3.956940e+02   -6.909163e+00
   2.991506e-02    7.627866e+02    1.852497e+00    7.608031e+02    4.014235e-07   -4.160210e+01    3.925283e+02   -6.882146e+00
   3.013486e-02    7.537320e+02    1.845132e+00    7.517575e+02    4.014235e-07   -4.157466e+01    3.893861e+02   -6.855222e+00
   3.035627e-02    7.447802e+02    1.837792e+00    7.428146e+02    4.014235e-07   -4.154696e+01    3.862673e+02   -6.828389e+00
   3.057931e-02    7.359299e+02    1.830477e+00    7.339733e+02    4.014235e-07   -4.151901e+01    3.831717e+02   -6.801649e+00
   3.080399e-02    7.271801e+02    1.823188e+00    7.252325e+02    4.014235e-07   -4.149079e+01    3.800991e+02   -6.775000e+00
   3.103032e-02    7.185296e+02    1.815924e+00    7.165911e+02    4.014235e-07   -4.146232e+01    3.770495e+02   -6.748442e+00
   3.125831e-02    7.099776e+02    1.808685e+00    7.080479e+02    4.014235e-07   -4.143359e+01    3.740225e+02   -6.721976e+00
   3.148798e-02    7.015230e+02    1.801471e+00    6.996018e+02    4.014235e-07   -4.140460e+01    3.710181e+02   -6.695601e+00
   3.171933e-02    6.931645e+02    1.794281e+00    6.912519e+02    4.014235e-07   -4.137536e+01    3.680360e+02   -6.669316e+00
   3.195239e-02    6.849010e+02    1.787116e+00    6.829970e+02    4.014235e-07   -4.134586e+01    3.650762e+02   -6.643121e+00
   3.218715e-02    6.767315e+02    1.779976e+00    6.748361e+02    4.014235e-07   -4.131611e+01    3.621384e+02   -6.617015e+00
   3.242365e-02    6.686549e+02    1.772861e+00    6.667681e+02    4.014235e-07   -4.128610e+01    3.592225e+02   -6.590999e+00
   3.266188e-02    6.606703e+02    1.765770e+00    6.587921e+02    4.014235e-07   -4.125584e+01    3.563284e+02   -6.565071e+00
   3.290186e-02    6.527766e+02    1.758703e+00    6.509069e+02    4.014235e-07   -4.122533e+01    3.534558e+02   -6.539232e+00
   3.314360e-02    6.449727e+02    1.751660e+00    6.431116e+02    4.014235e-07   -4.119457e+01    3.506047e+02   -6.513482e+00
   3.338712e-02    6.372578e+02    1.744642e+00    6.354053e+02    4.014235e-07   -4.116355e+01    3.477748e+02   -6.487819e+00
   3.363243e-02    6.296311e+02    1.737648e+00    6.277868e+02    4.014235e-07   -4.113229e+01    3.449661e+02   -6.462245e+00
   3.387954e-02    6.220914e+02    1.730677e+00    6.202553e+02    4.014235e-07   -4.110077e+01    3.421783e+02   -6.436758e+00
   3.412846e-02    6.146376e+02    1.723731e+00    6.128098e+02    4.014235e-07   -4.106901e+01    3.394114e+02   -6.411358e+00
   3.437922e-02    6.072689e+02    1.716808e+00    6.054492e+02    4.014235e-07   -4.103699e+01    3.366651e+02   -6.386045e+00
   3.463182e-02    5.999843e+02    1.709910e+00    5.981728e+02    4.014235e-07   -4.100473e+01    3.339393e+02   -6.360819e+00
   3.488627e-02    5.927828e+02    1.703034e+00    5.909795e+02    4.014235e-07   -4.097222e+01    3.312339e+02   -6.335678e+00
   3.514259e-02    5.856636e+02    1.696183e+00    5.838685e+02    4.014235e-07   -4.093946e+01    3.285487e+02   -6.310623e+00
   3.540080e-02    5.786258e+02    1.689355e+00    5.768387e+02    4.014235e-07   -4.090645e+01    3.258835e+02   -6.285653e+00
   3.566091e-02    5.716683e+02    1.682550e+00    5.698894e+02    4.014235e-07   -4.087320e+01    3.232383e+02   -6.260769e+00
   3.592292e-02    5.647904e+02    1.675768e+00    5.630196e+02    4.014235e-07   -4.083971e+01    3.206129e+02   -6.235969e+00
   3.618686e-02    5.579912e+02    1.669010e+00    5.562285e+02    4.014235e-07   -4.080596e+01    3.180071e+02   -6.211254e+00
   3.645274e-02    5.512698e+02    1.662275e+00    5.495151e+02    4.014235e-07   -4.077198e+01    3.154208e+02   -6.186623e+00
   3.672057e-02    5.446256e+02    1.655563e+00    5.428786e+02    4.014235e-07   -4.073775e+01    3.128539e+02   -6.162077e+00
   3.699037e-02    5.380574e+02    1.648874e+00    5.363182e+02    4.014235e-07   -4.070327e+01    3.103062e+02   -6.137614e+00
   3.726216e-02    5.315644e+02    1.642208e+00    5.298330e+02    4.014235e-07   -4.066856e+01    3.077775e+02   -6.113234e+00
   3.753594e-02    5.251458e+02    1.635565e+00    5.234222e+02    4.014235e-07   -4.063360e+01    3.052678e+02   -6.088938e+00
   3.781173e-02    5.188008e+02    1.628944e+00    5.170849e+02    4.014235e-07   -4.059839e+01    3.027769e+02   -6.064724e+00
   3.808955e-02    5.125286e+02    1.622346e+00    5.108204e+02    4.014235e-07   -4.056295e+01    3.003047e+02   -6.040593e+00
   3.836941e-02    5.063283e+02    1.615771e+00    5.046278e+02    4.014235e-07   -4.052727e+01    2.978510e+02   -6.016543e+00
   3.865132e-02    5.001992e+02    1.609218e+00    4.985063e+02    4.014235e-07   -4.049134e+01    2.954157e+02   -5.992576e+00
   3.893531e-02    4.941404e+02    1.602687e+00    4.924552e+02    4.014235e-07   -4.045518e+01    2.929987e+02   -5.968690e+00
   3.922138e-02    4.881513e+02    1.596179e+00    4.864736e+02    4.014235e-07   -4.041878e+01    2.905998e+02   -5.944885e+00
   3.950956e-02    4.822309e+02    1.589693e+00    4.805609e+02    4.014235e-07   -4.038214e+01    2.882188e+02   -5.921161e+00
   3.979985e-02    4.763786e+02    1.583229e+00    4.747161e+02    4.014235e-07   -4.034526e+01    2.858558e+02   -5.897518e+00
   4.009227e-02    4.705936e+02    1.576787e+00    4.689386e+02    4.014235e-07   -4.030814e+01    2.835105e+02   -5.873955e+00
   4.038685e-02    4.648751e+02    1.570367e+00    4.632276e+02    4.014235e-07   -4.027078e+01    2.811828e+02   -5.850472e+00
   4.068359e-02    4.592225e+02    1.563969e+00    4.575825e+02    4.014235e-07   -4.023319e+01    2.788727e+02   -5.827068e+00
   4.098251e-02    4.536349e+02    1.557593e+00    4.520023e+02    4.014235e-07   -4.019536e+01    2.765798e+02   -5.803745e+00
   4.128362e-02    4.481118e+02    1.551239e+00    4.464865e+02    4.014235e-07   -4.015730e+01    2.743042e+02   -5.780501e+00
   4.158695e-02    4.426524e+02    1.544906e+00    4.410343e+02    4.014235e-07   -4.011900e+01    2.720457e+02   -5.757335e+00
   4.189250e-02    4.372559e+02    1.538595e+00    4.356450e+02    4.014235e-07   -4.008047e+01    2.698042e+02   -5.734249e+00
   4.220030e-02    4.319216e+02    1.532305e+00    4.303180e+02    4.014235e-07   -4.004170e+01    2.675796e+02   -5.711241e+00
   4.251037e-02    4.266488e+02    1.526037e+00    4.250524e+02    4.014235e-07   -4.000270e+01    2.653717e+02   -5.688310e+00
   4.282271e-02    4.214369e+02    1.519790e+00    4.198476e+02    4.014235e-07   -3.996346e+01    2.631805e+02   -5.665458e+00
   4.313734e-02    4.162852e+02    1.513565e+00    4.147030e+02    4.014235e-07   -3.992400e+01    2.610057e+02   -5.642683e+00
   4.345429e-02    4.111930e+02    1.507361e+00    4.096179e+02    4.014235e-07   -3.988430e+01    2.588473e+02   -5.619985e+00
   4.377357e-02    4.061596e+02    1.501177e+00    4.045916e+02    4.014235e-07   -3.984437e+01    2.567052e+02   -5.597364e+00
   4.409519e-02    4.011845e+02    1.495015e+00    3.996235e+02    4.014235e-07   -3.980420e+01    2.545792e+02   -5.574820e+00
   4.441917e-02    3.962669e+02    1.488874e+00    3.947129e+02    4.014235e-07   -3.976381e+01    2.524693e+02   -5.552352e+00
   4.474554e-02    3.914062e+02    1.482754e+00    3.898592e+02    4.014235e-07   -3.972318e+01    2.503752e+02   -5.529961e+00
   4.507430e-02    3.866017e+02    1.476655e+00    3.850617e+02    4.014235e-07   -3.968233e+01    2.482970e+02   -5.507645e+00
   4.540548e-02    3.818529e+02    1.470576e+00    3.803198e+02    4.014235e-07   -3.964125e+01    2.462345e+02   -5.485405e+00
   4.573909e-02    3.771592e+02    1.464518e+00    3.756329e+02    4.014235e-07   -3.959993e+01    2.441875e+02   -5.463240e+00
   4.607516e-02    3.725198e+02    1.458481e+00    3.710004e+02    4.014235e-07   -3.955839e+01    2.421560e+02   -5.441150e+00
   4.641369e-02    3.679343e+02    1.452464e+00    3.664217e+02    4.014235e-07   -3.951662e+01    2.401398e+02   -5.419134e+00
   4.675471e-02    3.634019e+02    1.446467e+00    3.618962e+02    4.014235e-07   -3.947463e+01    2.381389e+02   -5.397194e+00
   4.709824e-02    3.589222e+02    1.440491e+00    3.574232e+02    4.014235e-07   -3.943240e+01    2.361531e+02   -5.375327e+00
   4.744429e-02    3.544945e+02    1.434536e+00    3.530023e+02    4.014235e-07   -3.938995e+01    2.341823e+02   -5.353535e+00
   4.779288e-02    3.501183e+02    1.428600e+00    3.486327e+02    4.014235e-07   -3.934727e+01    2.322264e+02   -5.331816e+00
   4.814403e-02    3.457929e+02    1.422685e+00    3.443140e+02    4.014235e-07   -3.930437e+01    2.302854e+02   -5.310170e+00
   4.849777e-02    3.415178e+02    1.416790e+00    3.400456e+02    4.014235e-07   -3.926124e+01    2.283590e+02   -5.288598e+00
   4.885410e-02    3.372925e+02    1.410915e+00    3.358269e+02    4.014235e-07   -3.921789e+01    2.264472e+02   -5.267099e+00
   4.921305e-02    3.331164e+02    1.405059e+00    3.316574e+02    4.014235e-07   -3.917431e+01    2.245499e+02   -5.245672e+00
   4.957464e-02    3.289889e+02    1.399224e+00    3.275364e+02    4.014235e-07   -3.913051e+01    2.226670e+02   -5.224318e+00
   4.993888e-02    3.249095e+02    1.393408e+00    3.234636e+02    4.014235e-07   -3.908649e+01    2.207984e+02   -5.203036e+00
   5.030580e-02    3.208776e+02    1.387613e+00    3.194382e+02    4.014235e-07   -3.904224e+01    2.189439e+02   -5.181825e+00
   5.067542e-02    3.168928e+02    1.381837e+00    3.154599e+02    4.014235e-07   -3.899777e+01    2.171035e+02   -5.160687e+00
   5.104775e-02    3.129545e+02    1.376080e+00    3.115281e+02    4.014235e-07   -3.895308e+01    2.152771e+02   -5.139619e+00
   5.142282e-02    3.090622e+02    1.370343e+00    3.076421e+02    4.014235e-07   -3.890816e+01    2.134646e+02   -5.118623e+00
   5.180064e-02    3.052153e+02    1.364625e+00    3.038017e+02    4.014235e-07   -3.886303e+01    2.116658e+02   -5.097698e+00
   5.218124e-02    3.014134e+02    1.358927e+00    3.000061e+02    4.014235e-07   -3.881767e+01    2.098807e+02   -5.076843e+00
   5.256464e-02    2.976560e+02    1.353248e+00    2.962550e+02    4.014235e-07   -3.877209e+01    2.081091e+02   -5.056058e+00
   5.295085e-02    2.939425e+02    1.347589e+00    2.925479e+02    4.014235e-07   -3.872630e+01    2.063510e+02   -5.035344e+00
   5.333991e-02    2.902724e+02    1.341948e+00    2.888841e+02    4.014235e-07   -3.868028e+01    2.046063e+02   -5.014699e+00
   5.373182e-02    2.866454e+02    1.336327e+00    2.852634e+02    4.014235e-07   -3.863405e+01    2.028749e+02   -4.994125e+00
   5.412661e-02    2.830608e+02    1.330725e+00    2.816851e+02    4.014235e-07   -3.858759e+01    2.011567e+02   -4.973619e+00
   5.452429e-02    2.795183e+02    1.325142e+00    2.781488e+02    4.014235e-07   -3.854092e+01    1.994516e+02   -4.953182e+00
   5.492491e-02    2.760173e+02    1.319577e+00    2.746540e+02    4.014235e-07   -3.849403e+01    1.977594e+02   -4.932815e+00
   5.532846e-02    2.725574e+02    1.314032e+00    2.712003e+02    4.014235e-07   -3.844693e+01    1.960802e+02   -4.912516e+00
   5.573498e-02    2.691382e+02    1.308505e+00    2.677871e+02    4.014235e-07   -3.839961e+01    1.944137e+02   -4.892285e+00
   5.614449e-02    2.657591e+02    1.302997e+00    2.644142e+02    4.014235e-07   -3.835207e+01    1.927600e+02   -4.872123e+00
   5.655701e-02    2.624198e+02    1.297508e+00    2.610809e+02    4.014235e-07   -3.830431e+01    1.911189e+02   -4.852029e+00
   5.697255e-02    2.591197e+02    1.292037e+00    2.577869e+02    4.014235e-07   -3.825634e+01    1.894904e+02   -4.832002e+00
   5.739115e-02    2.558585e+02    1.286585e+00    2.545316e+02    4.014235e-07   -3.820816e+01    1.878743e+02   -4.812043e+00
   5.781283e-02    2.526357e+02    1.281151e+00    2.513148e+02    4.014235e-07   -3.815976e+01    1.862705e+02   -4.792151e+00
   5.823760e-02    2.494509e+02    1.275735e+00    2.481359e+02    4.014235e-07   -3.811114e+01    1.846790e+02   -4.772326e+00
   5.866550e-02    2.463036e+02    1.270338e+00    2.449945e+02    4.014235e-07   -3.806232e+01    1.830997e+02   -4.752568e+00
   5.909654e-02    2.431934e+02    1.264959e+00    2.418902e+02    4.014235e-07   -3.801328e+01    1.815324e+02   -4.732876e+00
   5.953074e-02    2.401199e+02    1.259599e+00    2.388226e+02    4.014235e-07   -3.796402e+01    1.799772e+02   -4.713250e+00
   5.996814e-02    2.370827e+02    1.254256e+00    2.357913e+02    4.014235e-07   -3.791456e+01    1.784339e+02   -4.693691e+00
   6.040875e-02    2.340813e+02    1.248932e+00    2.327958e+02    4.014235e-07   -3.786488e+01    1.769024e+02   -4.674197e+00
   6.085260e-02    2.311155e+02    1.243625e+00    2.298358e+02    4.014235e-07   -3.781500e+01    1.753827e+02   -4.654768e+00
   6.129971e-02    2.281847e+02    1.238337e+00    2.269108e+02    4.014235e-07   -3.776490e+01    1.738746e+02   -4.635405e+00
