# All units in Hartree [AU] if not specified
# Convergence: Err(φ)=4.050e-11, Err(n_e)=9.907e-11, Err(IET)=1.473e-01, Q_net=1.726e-08
# {"name":"Ar", "Z":18, "Zstar":0.25354325159062735, "A":39.948,  "μ[AU]": -6.4277968903e-02, "Te[AU]": 2.158e-02, "Ti[AU]": 2.158e-02, "rs[AU]": 1.372e+01 }
   r[AU]           n[AU]           nf[AU]          nb[AU]          n_ion[AU]       φtot[AU]        δVxc/δρ[Au]     U_ei[AU]        U_ii[AU]        g_ii            
   1.000000e-04    7.298699e+06    8.513104e-01    7.298698e+06    0.000000e+00    1.799153e+05   -1.434897e+02   -3.660522e+00    2.474745e+00    1.257649e-03
   1.005935e-04    7.234195e+06   -9.245826e-01    7.234196e+06    0.000000e+00    1.788533e+05   -1.430663e+02    1.189591e+00    2.474736e+00    1.257629e-03
   1.011905e-04    7.170261e+06   -3.068088e+00    7.170264e+06    0.000000e+00    1.777976e+05   -1.426442e+02    1.189591e+00    2.474727e+00    1.257609e-03
   1.017911e-04    7.106896e+06   -6.528789e-01    7.106897e+06    0.000000e+00    1.767481e+05   -1.422233e+02    1.189591e+00    2.474718e+00    1.257589e-03
   1.023952e-04    7.044091e+06    9.134827e-01    7.044090e+06    0.000000e+00    1.757048e+05   -1.418037e+02   -3.850122e+00    2.474709e+00    1.257569e-03
   1.030029e-04    6.981839e+06    1.647680e+00    6.981838e+06    0.000000e+00    1.746677e+05   -1.413853e+02   -5.859614e+00    2.474700e+00    1.257548e-03
   1.036142e-04    6.920137e+06    1.583464e+00    6.920135e+06    0.000000e+00    1.736366e+05   -1.409682e+02   -5.696703e+00    2.474691e+00    1.257528e-03
   1.042292e-04    6.858979e+06    7.286369e-01    6.858978e+06    0.000000e+00    1.726117e+05   -1.405523e+02   -3.273783e+00    2.474682e+00    1.257507e-03
   1.048478e-04    6.798361e+06   -8.935191e-01    6.798362e+06    0.000000e+00    1.715928e+05   -1.401375e+02    1.189591e+00    2.474673e+00    1.257486e-03
   1.054700e-04    6.738278e+06   -3.223425e+00    6.738281e+06    0.000000e+00    1.705799e+05   -1.397241e+02    1.189591e+00    2.474664e+00    1.257465e-03
   1.060960e-04    6.678730e+06   -8.918098e-01    6.678731e+06    0.000000e+00    1.695730e+05   -1.393118e+02    1.189591e+00    2.474654e+00    1.257444e-03
   1.067257e-04    6.619707e+06    6.313111e-01    6.619707e+06    0.000000e+00    1.685720e+05   -1.389008e+02   -2.952652e+00    2.474645e+00    1.257423e-03
   1.073591e-04    6.561206e+06    1.375135e+00    6.561204e+06    0.000000e+00    1.675770e+05   -1.384910e+02   -5.154121e+00    2.474635e+00    1.257402e-03
   1.079962e-04    6.503220e+06    1.359968e+00    6.503219e+06    0.000000e+00    1.665878e+05   -1.380824e+02   -5.113620e+00    2.474626e+00    1.257380e-03
   1.086372e-04    6.445746e+06    6.019379e-01    6.445746e+06    0.000000e+00    1.656044e+05   -1.376750e+02   -2.852709e+00    2.474616e+00    1.257359e-03
   1.092819e-04    6.388779e+06   -8.732485e-01    6.388780e+06    0.000000e+00    1.646269e+05   -1.372688e+02    1.189591e+00    2.474607e+00    1.257337e-03
   1.099305e-04    6.332315e+06   -3.051093e+00    6.332318e+06    0.000000e+00    1.636551e+05   -1.368637e+02    1.189591e+00    2.474597e+00    1.257315e-03
   1.105830e-04    6.276354e+06   -1.115242e+00    6.276355e+06    0.000000e+00    1.626890e+05   -1.364600e+02    1.189591e+00    2.474587e+00    1.257293e-03
   1.112393e-04    6.220887e+06    3.720463e-01    6.220887e+06    0.000000e+00    1.617287e+05   -1.360574e+02   -2.012052e+00    2.474577e+00    1.257271e-03
   1.118995e-04    6.165909e+06    1.117553e+00    6.165908e+06    0.000000e+00    1.607740e+05   -1.356559e+02   -4.446426e+00    2.474567e+00    1.257249e-03
   1.125636e-04    6.111417e+06    1.148107e+00    6.111415e+06    0.000000e+00    1.598250e+05   -1.352557e+02   -4.532885e+00    2.474558e+00    1.257227e-03
   1.132316e-04    6.057405e+06    4.823635e-01    6.057404e+06    0.000000e+00    1.588815e+05   -1.348566e+02   -2.430176e+00    2.474548e+00    1.257204e-03
   1.139037e-04    6.003869e+06   -8.692800e-01    6.003870e+06    0.000000e+00    1.579436e+05   -1.344587e+02    1.189591e+00    2.474538e+00    1.257181e-03
   1.145797e-04    5.950806e+06   -2.867707e+00    5.950809e+06    0.000000e+00    1.570113e+05   -1.340620e+02    1.189591e+00    2.474527e+00    1.257159e-03
   1.152597e-04    5.898216e+06   -1.298156e+00    5.898217e+06    0.000000e+00    1.560844e+05   -1.336665e+02    1.189591e+00    2.474517e+00    1.257136e-03
   1.159437e-04    5.846090e+06    1.346369e-01    5.846090e+06    0.000000e+00    1.551630e+05   -1.332721e+02   -9.525305e-01    2.474507e+00    1.257113e-03
   1.166319e-04    5.794424e+06    8.727552e-01    5.794423e+06    0.000000e+00    1.542471e+05   -1.328789e+02   -3.726209e+00    2.474497e+00    1.257090e-03
   1.173241e-04    5.743214e+06    9.481550e-01    5.743213e+06    0.000000e+00    1.533365e+05   -1.324869e+02   -3.954086e+00    2.474486e+00    1.257066e-03
   1.180204e-04    5.692455e+06    3.629869e-01    5.692455e+06    0.000000e+00    1.524314e+05   -1.320960e+02   -1.976152e+00    2.474476e+00    1.257043e-03
   1.187208e-04    5.642145e+06   -8.605931e-01    5.642146e+06    0.000000e+00    1.515315e+05   -1.317063e+02    1.189591e+00    2.474466e+00    1.257019e-03
   1.194254e-04    5.592278e+06   -2.706492e+00    5.592281e+06    0.000000e+00    1.506370e+05   -1.313177e+02    1.189591e+00    2.474455e+00    1.256996e-03
   1.201342e-04    5.542855e+06   -1.475836e+00    5.542857e+06    0.000000e+00    1.497478e+05   -1.309303e+02    1.189591e+00    2.474445e+00    1.256972e-03
   1.208472e-04    5.493869e+06   -8.818836e-02    5.493869e+06    0.000000e+00    1.488638e+05   -1.305440e+02    1.189591e+00    2.474434e+00    1.256948e-03
   1.215644e-04    5.445315e+06    6.550350e-01    5.445315e+06    0.000000e+00    1.479850e+05   -1.301588e+02   -3.032210e+00    2.474423e+00    1.256924e-03
   1.222859e-04    5.397190e+06    7.553126e-01    5.397189e+06    0.000000e+00    1.471114e+05   -1.297748e+02   -3.359498e+00    2.474412e+00    1.256899e-03
   1.230117e-04    5.349489e+06    2.470563e-01    5.349489e+06    0.000000e+00    1.462429e+05   -1.293919e+02   -1.491058e+00    2.474402e+00    1.256875e-03
   1.237417e-04    5.302209e+06   -8.726544e-01    5.302210e+06    0.000000e+00    1.453796e+05   -1.290102e+02    1.189591e+00    2.474391e+00    1.256850e-03
   1.244761e-04    5.255346e+06   -2.565599e+00    5.255349e+06    0.000000e+00    1.445214e+05   -1.286295e+02    1.189591e+00    2.474380e+00    1.256826e-03
   1.252149e-04    5.208900e+06   -1.619891e+00    5.208902e+06    0.000000e+00    1.436682e+05   -1.282501e+02    1.189591e+00    2.474369e+00    1.256801e-03
   1.259580e-04    5.162865e+06   -2.854297e-01    5.162865e+06    0.000000e+00    1.428201e+05   -1.278717e+02    1.189591e+00    2.474358e+00    1.256776e-03
   1.267056e-04    5.117236e+06    4.417218e-01    5.117235e+06    0.000000e+00    1.419770e+05   -1.274944e+02   -2.279783e+00    2.474346e+00    1.256751e-03
   1.274576e-04    5.072009e+06    5.783160e-01    5.072009e+06    0.000000e+00    1.411388e+05   -1.271183e+02   -2.771438e+00    2.474335e+00    1.256725e-03
   1.282140e-04    5.027182e+06    1.347948e-01    5.027181e+06    0.000000e+00    1.403056e+05   -1.267432e+02   -9.533486e-01    2.474324e+00    1.256700e-03
   1.289750e-04    4.982750e+06   -8.795366e-01    4.982750e+06    0.000000e+00    1.394773e+05   -1.263693e+02    1.189591e+00    2.474312e+00    1.256674e-03
   1.297404e-04    4.938710e+06   -2.442487e+00    4.938712e+06    0.000000e+00    1.386539e+05   -1.259965e+02    1.189591e+00    2.474301e+00    1.256649e-03
   1.305104e-04    4.895061e+06   -1.753143e+00    4.895063e+06    0.000000e+00    1.378354e+05   -1.256247e+02    1.189591e+00    2.474290e+00    1.256623e-03
   1.312850e-04    4.851799e+06   -4.594115e-01    4.851799e+06    0.000000e+00    1.370216e+05   -1.252541e+02    1.189591e+00    2.474278e+00    1.256597e-03
   1.320642e-04    4.808918e+06    2.584726e-01    4.808918e+06    0.000000e+00    1.362127e+05   -1.248846e+02   -1.541286e+00    2.474266e+00    1.256570e-03
   1.328480e-04    4.766416e+06    4.158064e-01    4.766416e+06    0.000000e+00    1.354086e+05   -1.245162e+02   -2.181752e+00    2.474255e+00    1.256544e-03
   1.336364e-04    4.724289e+06    2.455789e-02    4.724289e+06    0.000000e+00    1.346092e+05   -1.241488e+02   -2.737418e-01    2.474243e+00    1.256518e-03
   1.344295e-04    4.682533e+06   -8.946314e-01    4.682534e+06    0.000000e+00    1.338145e+05   -1.237825e+02    1.189591e+00    2.474231e+00    1.256491e-03
   1.352274e-04    4.641146e+06   -2.334783e+00    4.641148e+06    0.000000e+00    1.330245e+05   -1.234173e+02    1.189591e+00    2.474219e+00    1.256464e-03
   1.360299e-04    4.600127e+06   -1.867920e+00    4.600128e+06    0.000000e+00    1.322392e+05   -1.230532e+02    1.189591e+00    2.474207e+00    1.256437e-03
   1.368372e-04    4.559470e+06   -6.219597e-01    4.559471e+06    0.000000e+00    1.314585e+05   -1.226902e+02    1.189591e+00    2.474195e+00    1.256410e-03
   1.376494e-04    4.519173e+06    7.884245e-02    4.519173e+06    0.000000e+00    1.306824e+05   -1.223282e+02   -6.404596e-01    2.474183e+00    1.256383e-03
   1.384663e-04    4.479231e+06    2.600415e-01    4.479230e+06    0.000000e+00    1.299109e+05   -1.219673e+02   -1.548154e+00    2.474171e+00    1.256355e-03
   1.392881e-04    4.439641e+06   -7.680992e-02    4.439641e+06    0.000000e+00    1.291439e+05   -1.216075e+02    1.189591e+00    2.474158e+00    1.256327e-03
   1.401148e-04    4.400401e+06   -9.198672e-01    4.400402e+06    0.000000e+00    1.283815e+05   -1.212487e+02    1.189591e+00    2.474146e+00    1.256300e-03
   1.409463e-04    4.361507e+06   -2.241314e+00    4.361509e+06    0.000000e+00    1.276235e+05   -1.208910e+02    1.189591e+00    2.474134e+00    1.256272e-03
   1.417828e-04    4.322958e+06   -1.973124e+00    4.322960e+06    0.000000e+00    1.268701e+05   -1.205343e+02    1.189591e+00    2.474121e+00    1.256244e-03
   1.426243e-04    4.284751e+06   -7.698299e-01    4.284751e+06    0.000000e+00    1.261210e+05   -1.201787e+02    1.189591e+00    2.474109e+00    1.256215e-03
   1.434708e-04    4.246881e+06   -7.857192e-02    4.246881e+06    0.000000e+00    1.253764e+05   -1.198242e+02    1.189591e+00    2.474096e+00    1.256187e-03
   1.443223e-04    4.209345e+06    1.087560e-01    4.209344e+06    0.000000e+00    1.246362e+05   -1.194707e+02   -8.130827e-01    2.474083e+00    1.256158e-03
   1.451788e-04    4.172140e+06   -1.778650e-01    4.172140e+06    0.000000e+00    1.239004e+05   -1.191182e+02    1.189591e+00    2.474070e+00    1.256129e-03
   1.460404e-04    4.135263e+06   -9.425747e-01    4.135264e+06    0.000000e+00    1.231689e+05   -1.187668e+02    1.189591e+00    2.474058e+00    1.256100e-03
   1.469072e-04    4.098712e+06   -2.159503e+00    4.098714e+06    0.000000e+00    1.224417e+05   -1.184164e+02    1.189591e+00    2.474045e+00    1.256071e-03
   1.477791e-04    4.062485e+06   -2.057808e+00    4.062487e+06    0.000000e+00    1.217188e+05   -1.180671e+02    1.189591e+00    2.474032e+00    1.256042e-03
   1.486561e-04    4.026579e+06   -9.000067e-01    4.026580e+06    0.000000e+00    1.210002e+05   -1.177187e+02    1.189591e+00    2.474019e+00    1.256012e-03
   1.495384e-04    3.990990e+06   -2.266407e-01    3.990991e+06    0.000000e+00    1.202858e+05   -1.173715e+02    1.189591e+00    2.474005e+00    1.255983e-03
   1.504259e-04    3.955715e+06   -2.054230e-02    3.955715e+06    0.000000e+00    1.195756e+05   -1.170252e+02    1.189591e+00    2.473992e+00    1.255953e-03
   1.513187e-04    3.920752e+06   -2.699903e-01    3.920752e+06    0.000000e+00    1.188696e+05   -1.166799e+02    1.189591e+00    2.473979e+00    1.255923e-03
   1.522167e-04    3.886096e+06   -9.631360e-01    3.886097e+06    0.000000e+00    1.181678e+05   -1.163357e+02    1.189591e+00    2.473965e+00    1.255893e-03
   1.531201e-04    3.851747e+06   -2.088540e+00    3.851749e+06    0.000000e+00    1.174701e+05   -1.159925e+02    1.189591e+00    2.473952e+00    1.255862e-03
   1.540289e-04    3.817702e+06   -2.124017e+00    3.817704e+06    0.000000e+00    1.167766e+05   -1.156503e+02    1.189591e+00    2.473938e+00    1.255832e-03
   1.549430e-04    3.783959e+06   -1.018637e+00    3.783960e+06    0.000000e+00    1.160871e+05   -1.153091e+02    1.189591e+00    2.473925e+00    1.255801e-03
   1.558626e-04    3.750514e+06   -3.620854e-01    3.750514e+06    0.000000e+00    1.154017e+05   -1.149689e+02    1.189591e+00    2.473911e+00    1.255770e-03
   1.567877e-04    3.717364e+06   -1.463319e-01    3.717364e+06    0.000000e+00    1.147203e+05   -1.146298e+02    1.189591e+00    2.473897e+00    1.255739e-03
   1.577182e-04    3.684506e+06   -3.592342e-01    3.684507e+06    0.000000e+00    1.140430e+05   -1.142916e+02    1.189591e+00    2.473883e+00    1.255708e-03
   1.586542e-04    3.651939e+06   -9.897472e-01    3.651940e+06    0.000000e+00    1.133697e+05   -1.139544e+02    1.189591e+00    2.473869e+00    1.255676e-03
   1.595958e-04    3.619658e+06   -2.027089e+00    3.619660e+06    0.000000e+00    1.127003e+05   -1.136182e+02    1.189591e+00    2.473855e+00    1.255644e-03
   1.605430e-04    3.587664e+06   -2.183146e+00    3.587666e+06    0.000000e+00    1.120349e+05   -1.132830e+02    1.189591e+00    2.473841e+00    1.255613e-03
   1.614958e-04    3.555954e+06   -1.121937e+00    3.555955e+06    0.000000e+00    1.113734e+05   -1.129488e+02    1.189591e+00    2.473827e+00    1.255581e-03
   1.624543e-04    3.524523e+06   -4.888282e-01    3.524524e+06    0.000000e+00    1.107158e+05   -1.126156e+02    1.189591e+00    2.473812e+00    1.255548e-03
   1.634185e-04    3.493370e+06   -2.678144e-01    3.493370e+06    0.000000e+00    1.100621e+05   -1.122834e+02    1.189591e+00    2.473798e+00    1.255516e-03
   1.643883e-04    3.462492e+06   -4.434879e-01    3.462492e+06    0.000000e+00    1.094122e+05   -1.119522e+02    1.189591e+00    2.473784e+00    1.255483e-03
   1.653640e-04    3.431886e+06   -1.018268e+00    3.431887e+06    0.000000e+00    1.087662e+05   -1.116219e+02    1.189591e+00    2.473769e+00    1.255451e-03
   1.663454e-04    3.401550e+06   -1.973778e+00    3.401552e+06    0.000000e+00    1.081240e+05   -1.112926e+02    1.189591e+00    2.473754e+00    1.255418e-03
   1.673327e-04    3.371483e+06   -2.230280e+00    3.371485e+06    0.000000e+00    1.074856e+05   -1.109642e+02    1.189591e+00    2.473740e+00    1.255384e-03
   1.683258e-04    3.341683e+06   -1.214204e+00    3.341684e+06    0.000000e+00    1.068509e+05   -1.106369e+02    1.189591e+00    2.473725e+00    1.255351e-03
   1.693248e-04    3.312146e+06   -6.007667e-01    3.312146e+06    0.000000e+00    1.062200e+05   -1.103105e+02    1.189591e+00    2.473710e+00    1.255317e-03
   1.703297e-04    3.282869e+06   -3.703919e-01    3.282870e+06    0.000000e+00    1.055928e+05   -1.099851e+02    1.189591e+00    2.473695e+00    1.255284e-03
   1.713406e-04    3.253851e+06   -5.256159e-01    3.253851e+06    0.000000e+00    1.049693e+05   -1.096606e+02    1.189591e+00    2.473680e+00    1.255250e-03
   1.723575e-04    3.225089e+06   -1.044984e+00    3.225090e+06    0.000000e+00    1.043495e+05   -1.093371e+02    1.189591e+00    2.473665e+00    1.255215e-03
   1.733804e-04    3.196580e+06   -1.927624e+00    3.196582e+06    0.000000e+00    1.037334e+05   -1.090145e+02    1.189591e+00    2.473649e+00    1.255181e-03
   1.744094e-04    3.168324e+06   -2.267035e+00    3.168326e+06    0.000000e+00    1.031209e+05   -1.086929e+02    1.189591e+00    2.473634e+00    1.255146e-03
   1.754445e-04    3.140319e+06   -1.295191e+00    3.140320e+06    0.000000e+00    1.025120e+05   -1.083723e+02    1.189591e+00    2.473618e+00    1.255112e-03
   1.764858e-04    3.112561e+06   -6.991046e-01    3.112562e+06    0.000000e+00    1.019067e+05   -1.080526e+02    1.189591e+00    2.473603e+00    1.255077e-03
   1.775332e-04    3.085048e+06   -4.739309e-01    3.085049e+06    0.000000e+00    1.013049e+05   -1.077338e+02    1.189591e+00    2.473587e+00    1.255041e-03
   1.785869e-04    3.057778e+06   -5.970979e-01    3.057779e+06    0.000000e+00    1.007067e+05   -1.074160e+02    1.189591e+00    2.473572e+00    1.255006e-03
   1.796468e-04    3.030748e+06   -1.072727e+00    3.030749e+06    0.000000e+00    1.001121e+05   -1.070991e+02    1.189591e+00    2.473556e+00    1.254970e-03
   1.807130e-04    3.003957e+06   -1.887604e+00    3.003959e+06    0.000000e+00    9.952093e+04   -1.067831e+02    1.189591e+00    2.473540e+00    1.254935e-03
   1.817855e-04    2.977403e+06   -2.294111e+00    2.977405e+06    0.000000e+00    9.893326e+04   -1.064681e+02    1.189591e+00    2.473524e+00    1.254898e-03
   1.828644e-04    2.951085e+06   -1.365518e+00    2.951086e+06    0.000000e+00    9.834907e+04   -1.061540e+02    1.189591e+00    2.473508e+00    1.254862e-03
   1.839497e-04    2.924999e+06   -7.906413e-01    2.925000e+06    0.000000e+00    9.776832e+04   -1.058409e+02    1.189591e+00    2.473491e+00    1.254826e-03
   1.850414e-04    2.899144e+06   -5.604957e-01    2.899144e+06    0.000000e+00    9.719100e+04   -1.055287e+02    1.189591e+00    2.473475e+00    1.254789e-03
   1.861396e-04    2.873516e+06   -6.665959e-01    2.873517e+06    0.000000e+00    9.661709e+04   -1.052173e+02    1.189591e+00    2.473459e+00    1.254752e-03
   1.872443e-04    2.848115e+06   -1.104206e+00    2.848116e+06    0.000000e+00    9.604656e+04   -1.049069e+02    1.189591e+00    2.473442e+00    1.254715e-03
   1.883556e-04    2.822937e+06   -1.852936e+00    2.822939e+06    0.000000e+00    9.547939e+04   -1.045974e+02    1.189591e+00    2.473426e+00    1.254678e-03
   1.894735e-04    2.797983e+06   -2.312371e+00    2.797985e+06    0.000000e+00    9.491558e+04   -1.042889e+02    1.189591e+00    2.473409e+00    1.254640e-03
   1.905980e-04    2.773250e+06   -1.430139e+00    2.773251e+06    0.000000e+00    9.435509e+04   -1.039812e+02    1.189591e+00    2.473392e+00    1.254602e-03
   1.917292e-04    2.748736e+06   -8.753830e-01    2.748736e+06    0.000000e+00    9.379790e+04   -1.036745e+02    1.189591e+00    2.473375e+00    1.254564e-03
   1.928671e-04    2.724437e+06   -6.437738e-01    2.724438e+06    0.000000e+00    9.324401e+04   -1.033686e+02    1.189591e+00    2.473358e+00    1.254526e-03
   1.940117e-04    2.700354e+06   -7.311367e-01    2.700354e+06    0.000000e+00    9.269338e+04   -1.030637e+02    1.189591e+00    2.473341e+00    1.254488e-03
   1.951632e-04    2.676482e+06   -1.127780e+00    2.676483e+06    0.000000e+00    9.214600e+04   -1.027597e+02    1.189591e+00    2.473324e+00    1.254449e-03
   1.963215e-04    2.652822e+06   -1.826251e+00    2.652824e+06    0.000000e+00    9.160185e+04   -1.024565e+02    1.189591e+00    2.473307e+00    1.254410e-03
   1.974866e-04    2.629370e+06   -2.322634e+00    2.629373e+06    0.000000e+00    9.106091e+04   -1.021542e+02    1.189591e+00    2.473289e+00    1.254371e-03
   1.986587e-04    2.606128e+06   -1.477722e+00    2.606129e+06    0.000000e+00    9.052316e+04   -1.018529e+02    1.189591e+00    2.473272e+00    1.254331e-03
   1.998377e-04    2.583090e+06   -9.460918e-01    2.583091e+06    0.000000e+00    8.998859e+04   -1.015524e+02    1.189591e+00    2.473254e+00    1.254292e-03
   2.010238e-04    2.560255e+06   -7.217392e-01    2.560256e+06    0.000000e+00    8.945717e+04   -1.012529e+02    1.189591e+00    2.473236e+00    1.254252e-03
   2.022168e-04    2.537622e+06   -7.911524e-01    2.537623e+06    0.000000e+00    8.892888e+04   -1.009542e+02    1.189591e+00    2.473219e+00    1.254212e-03
   2.034170e-04    2.515189e+06   -1.152646e+00    2.515190e+06    0.000000e+00    8.840371e+04   -1.006563e+02    1.189591e+00    2.473201e+00    1.254171e-03
   2.046242e-04    2.492954e+06   -1.796738e+00    2.492955e+06    0.000000e+00    8.788164e+04   -1.003594e+02    1.189591e+00    2.473183e+00    1.254131e-03
