 # material = aluminum                
 # eff mass density (g/cc) =    2.70000000000000     
 # Zbar =    4.35322408794477     
#  All densities are *4*pi*r^2
#            r(a_B)                    ne_pa                     ne_scr                    ne_ion                   ne_full                   ne_ext 
        0.22315875582E-006        0.87028868041E-009        0.15249076789E-011        0.86876377273E-009        0.87029932385E-009        0.10643441532E-013
        0.89263502326E-006        0.13924618887E-007        0.24398522863E-010        0.13900220364E-007        0.13924789182E-007        0.17029506451E-012
        0.20084288023E-005        0.70525115600E-007        0.12357310096E-009        0.70401542499E-007        0.70525978130E-007        0.86252913357E-012
        0.35705400931E-005        0.22293172127E-006        0.39061767260E-009        0.22254110360E-006        0.22293444786E-006        0.27265846842E-011
        0.55789688954E-005        0.54429528986E-006        0.95370583198E-009        0.54334158403E-006        0.54430194725E-006        0.66573923184E-011
        0.80337152094E-005        0.11286450284E-005        0.19775935765E-008        0.11266674348E-005        0.11286588340E-005        0.13805576336E-010
        0.10934779035E-004        0.20908721618E-005        0.36635904841E-008        0.20872085713E-005        0.20908977393E-005        0.25577455128E-010
        0.14282160372E-004        0.35667099415E-005        0.62495244400E-008        0.35604604171E-005        0.35667535766E-005        0.43635041273E-010
        0.18075859221E-004        0.57127100201E-005        0.10009699951E-007        0.57027003201E-005        0.57127799161E-005        0.69896041567E-010
        0.22315875582E-004        0.87062151994E-005        0.15254850059E-007        0.86909603493E-005        0.87063217332E-005        0.10653385703E-009
        0.27002209454E-004        0.12745328558E-004        0.22332081870E-007        0.12722996477E-004        0.12745484536E-004        0.15597758293E-009
        0.32134860838E-004        0.18048878965E-004        0.31624815699E-007        0.18017254149E-004        0.18049099877E-004        0.22091200875E-009
        0.37713829733E-004        0.24856382979E-004        0.43552717843E-007        0.24812830261E-004        0.24856687257E-004        0.30427761822E-009
        0.43739116140E-004        0.33428003151E-004        0.58571627000E-007        0.33369431524E-004        0.33428412421E-004        0.40927058930E-009
        0.50210720059E-004        0.44044502723E-004        0.77173474339E-007        0.43967329249E-004        0.44045042066E-004        0.53934279419E-009
        0.57128641489E-004        0.57007196746E-004        0.99886197227E-007        0.56907310549E-004        0.57007894948E-004        0.69820179935E-009
        0.64492880431E-004        0.72637899609E-004        0.12727364665E-006        0.72510625963E-004        0.72638789420E-004        0.88981086543E-009
        0.72303436884E-004        0.91278868999E-004        0.15993548831E-006        0.91118933511E-004        0.91279987388E-004        0.11183889474E-008
        0.80560310850E-004        0.11329274630E-003        0.19850709744E-006        0.11309423920E-003        0.11329413471E-003        0.13884106943E-008
        0.89263502326E-004        0.13906249342E-003        0.24365944737E-006        0.13881883397E-003        0.13906419803E-003        0.17046064496E-008
        0.98413011315E-004        0.16899132613E-003        0.29609899176E-006        0.16869522713E-003        0.16899339809E-003        0.20719622510E-008
        0.10800883781E-003        0.20350264377E-003        0.35656754070E-006        0.20314607623E-003        0.20350513949E-003        0.24957198303E-008
        0.11805098183E-003        0.24303995555E-003        0.42584213052E-006        0.24261411342E-003        0.24304293693E-003        0.29813766136E-008
        0.12853944335E-003        0.28806680327E-003        0.50473488739E-006        0.28756206838E-003        0.28807033795E-003        0.35346857214E-008
        0.13947422239E-003        0.33906668053E-003        0.59409288483E-006        0.33847258764E-003        0.33907084218E-003        0.41616559681E-008
        0.15085531893E-003        0.39654294853E-003        0.69479799499E-006        0.39584815053E-003        0.39654781708E-003        0.48685518627E-008
        0.16268273299E-003        0.46101874833E-003        0.80776673382E-006        0.46021098159E-003        0.46102441022E-003        0.56618936083E-008
        0.17495646456E-003        0.53303690969E-003        0.93395010013E-006        0.53210295959E-003        0.53304345815E-003        0.65484571023E-008
        0.18767651364E-003        0.61315985648E-003        0.10743334086E-005        0.61208552307E-003        0.61316739175E-003        0.75352739362E-008
        0.20084288023E-003        0.70196950861E-003        0.12299361168E-005        0.70073957249E-003        0.70197813824E-003        0.86296313959E-008
        0.21445556434E-003        0.80006718060E-003        0.14018116458E-005        0.79866536896E-003        0.80007701967E-003        0.98390724615E-008
        0.22851456596E-003        0.90807347679E-003        0.15910471956E-005        0.90648242959E-003        0.90808464818E-003        0.11171395808E-007
        0.24301988508E-003        0.10266281831E-002        0.17987635535E-005        0.10248294195E-002        0.10266408177E-002        0.12634655802E-007
        0.25797152172E-003        0.11563901553E-002        0.20261148977E-005        0.11543640404E-002        0.11564043925E-002        0.14237162509E-007
        0.27336947587E-003        0.12980372045E-002        0.22742885939E-005        0.12957629159E-002        0.12980531920E-002        0.15987481685E-007
        0.28921374754E-003        0.14522659786E-002        0.25445049868E-005        0.14497214736E-002        0.14522838730E-002        0.17894434782E-007
        0.30550433671E-003        0.16197918408E-002        0.28380171855E-005        0.16169538236E-002        0.16198118079E-002        0.19967098945E-007
        0.32224124340E-003        0.18013487447E-002        0.31561108429E-005        0.17981926339E-002        0.18013709595E-002        0.22214807014E-007
        0.33942446760E-003        0.19976891068E-002        0.35001039300E-005        0.19941890028E-002        0.19977137539E-002        0.24647147524E-007
        0.35705400931E-003        0.22095836742E-002        0.38713465033E-005        0.22057123277E-002        0.22096109482E-002        0.27273964704E-007
        0.37512986853E-003        0.24378213911E-002        0.42712204677E-005        0.24335501706E-002        0.24378514964E-002        0.30105358475E-007
        0.39365204526E-003        0.26832092603E-002        0.47011393332E-005        0.26785081209E-002        0.26832424120E-002        0.33151684457E-007
        0.41262053950E-003        0.29465722027E-002        0.51625479657E-005        0.29414096547E-002        0.29466086262E-002        0.36423553959E-007
        0.43203535126E-003        0.32287529131E-002        0.56569223327E-005        0.32230959907E-002        0.32287928449E-002        0.39931833989E-007
        0.45189648053E-003        0.35306117131E-002        0.61857692437E-005        0.35244259438E-002        0.35306554007E-002        0.43687647246E-007
        0.47220392731E-003        0.38530264008E-002        0.67506260838E-005        0.38462757747E-002        0.38530741031E-002        0.47702372125E-007
        0.49295769160E-003        0.41968920973E-002        0.73530605436E-005        0.41895390367E-002        0.41969440849E-002        0.51987642714E-007
        0.51415777340E-003        0.45631210904E-002        0.79946703423E-005        0.45551264201E-002        0.45631776458E-002        0.56555348799E-007
        0.53580417271E-003        0.49526426754E-002        0.86770829464E-005        0.49439655924E-002        0.49527040930E-002        0.61417635855E-007
        0.55789688954E-003        0.53664029920E-002        0.94019552819E-005        0.53570010367E-002        0.53664695789E-002        0.66586905056E-007
        0.58043592388E-003        0.58053648594E-002        0.10170973443E-004        0.57951938859E-002        0.58054369352E-002        0.72075813267E-007
        0.60342127573E-003        0.62705076078E-002        0.10985852393E-004        0.62595217554E-002        0.62705855051E-002        0.77897273050E-007
        0.62685294509E-003        0.67628269072E-002        0.11848335663E-004        0.67509785715E-002        0.67629109717E-002        0.84064452661E-007
        0.65073093196E-003        0.72833345928E-002        0.12760195045E-004        0.72705743978E-002        0.72834251836E-002        0.90590776048E-007
        0.67505523634E-003        0.78330584884E-002        0.13723230274E-004        0.78193352581E-002        0.78331559783E-002        0.97489922857E-007
        0.69982585824E-003        0.84130422262E-002        0.14739268716E-004        0.83983029575E-002        0.84131470021E-002        0.10477582843E-006
        0.72504279765E-003        0.90243450644E-002        0.15810165042E-004        0.90085348993E-002        0.90244575270E-002        0.11246268379E-006
        0.75070605457E-003        0.96680417011E-002        0.16937800900E-004        0.96511039002E-002        0.96681622661E-002        0.12056493567E-006
        0.77681562900E-003        0.10345222087E-001        0.18124084582E-004        0.10327098002E-001        0.10345351184E-001        0.12909728650E-006
        0.80337152094E-003        0.11056991234E-001        0.19370950687E-004        0.11037620283E-001        0.11057129308E-001        0.13807469439E-006
        0.83037373039E-003        0.11804469020E-001        0.20680359780E-004        0.11783788660E-001        0.11804616532E-001        0.14751237316E-006
        0.85782225736E-003        0.12588789996E-001        0.22054298041E-004        0.12566735698E-001        0.12588947421E-001        0.15742579230E-006
        0.88571710183E-003        0.13411103184E-001        0.23494776919E-004        0.13387608407E-001        0.13411271015E-001        0.16783067702E-006
        0.91405826382E-003        0.14272571878E-001        0.25003832767E-004        0.14247568045E-001        0.14272750621E-001        0.17874300822E-006
        0.94284574332E-003        0.15174373437E-001        0.26583526491E-004        0.15147789911E-001        0.15174563616E-001        0.19017902249E-006
        0.97207954033E-003        0.16117699082E-001        0.28235943177E-004        0.16089463138E-001        0.16117901237E-001        0.20215521211E-006
        0.10017596549E-002        0.17103753683E-001        0.29963191724E-004        0.17073790491E-001        0.17103968371E-001        0.21468832506E-006
        0.10318860869E-002        0.18133755550E-001        0.31767404470E-004        0.18101988146E-001        0.18133983345E-001        0.22779536501E-006
        0.10624588364E-002        0.19208936220E-001        0.33650736813E-004        0.19175285483E-001        0.19209177714E-001        0.24149359134E-006
        0.10934779035E-002        0.20330540238E-001        0.35615366826E-004        0.20294924871E-001        0.20330796038E-001        0.25580051912E-006
        0.11249432881E-002        0.21499824938E-001        0.37663494876E-004        0.21462161443E-001        0.21500095672E-001        0.27073391909E-006
        0.11568549902E-002        0.22718060226E-001        0.39797343224E-004        0.22678262883E-001        0.22718346538E-001        0.28631181772E-006
        0.11892130097E-002        0.23986528352E-001        0.42019155638E-004        0.23944509197E-001        0.23986830905E-001        0.30255249715E-006
        0.12220173468E-002        0.25306523688E-001        0.44331196988E-004        0.25262192491E-001        0.25306843163E-001        0.31947449523E-006
        0.12552680015E-002        0.26679352498E-001        0.46735752847E-004        0.26632616745E-001        0.26679689594E-001        0.33709660549E-006
        0.12889649736E-002        0.28106332707E-001        0.49235129081E-004        0.28057097578E-001        0.28106688145E-001        0.35543787718E-006
        0.13231082632E-002        0.29588793675E-001        0.51831651438E-004        0.29536962024E-001        0.29589168193E-001        0.37451761523E-006
        0.13576978704E-002        0.31128075954E-001        0.54527665136E-004        0.31073548289E-001        0.31128470310E-001        0.39435538025E-006
        0.13927337950E-002        0.32725531060E-001        0.57325534443E-004        0.32668205525E-001        0.32725946031E-001        0.41497098857E-006
        0.14282160372E-002        0.34382521227E-001        0.60227642253E-004        0.34322293585E-001        0.34382957612E-001        0.43638451221E-006
        0.14641445969E-002        0.36100419175E-001        0.63236389666E-004        0.36037182785E-001        0.36100877791E-001        0.45861627887E-006
        0.15005194741E-002        0.37880607861E-001        0.66354195553E-004        0.37814253665E-001        0.37881089548E-001        0.48168687197E-006
        0.15373406688E-002        0.39724480237E-001        0.69583496127E-004        0.39654896741E-001        0.39724985854E-001        0.50561713060E-006
        0.15746081810E-002        0.41633439007E-001        0.72926744507E-004        0.41560512263E-001        0.41633969436E-001        0.53042814957E-006
        0.16123220108E-002        0.43608896375E-001        0.76386410279E-004        0.43532509965E-001        0.43609452517E-001        0.55614127936E-006
        0.16504821580E-002        0.45652273797E-001        0.79964979053E-004        0.45572308818E-001        0.45652856575E-001        0.58277812618E-006
        0.16890886228E-002        0.47765001731E-001        0.83664952017E-004        0.47681336779E-001        0.47765612092E-001        0.61036055189E-006
        0.17281414050E-002        0.49948519381E-001        0.87488845492E-004        0.49861030536E-001        0.49949158292E-001        0.63891067409E-006
        0.17676405048E-002        0.52204274446E-001        0.91439190476E-004        0.52112835256E-001        0.52204942897E-001        0.66845086605E-006
        0.18075859221E-002        0.54533722861E-001        0.95518532194E-004        0.54438204329E-001        0.54534421865E-001        0.69900375675E-006
        0.18479776569E-002        0.56938328539E-001        0.99729429637E-004        0.56838599110E-001        0.56939059131E-001        0.73059223085E-006
        0.18888157092E-002        0.59419563114E-001        0.10407445511E-003        0.59315488659E-001        0.59420326354E-001        0.76323942873E-006
        0.19301000791E-002        0.61978905678E-001        0.10855619375E-003        0.61870349484E-001        0.61979702647E-001        0.79696874644E-006
        0.19718307664E-002        0.64617842518E-001        0.11317724309E-003        0.64504665275E-001        0.64618674322E-001        0.83180383573E-006
        0.20140077712E-002        0.67337866855E-001        0.11794021257E-003        0.67219926643E-001        0.67338734624E-001        0.86776860408E-006
        0.20566310936E-002        0.70140478576E-001        0.12284772308E-003        0.70017630853E-001        0.70141383464E-001        0.90488721463E-006
        0.20997007335E-002        0.73027183969E-001        0.12790240645E-003        0.72899281563E-001        0.73028127153E-001        0.94318408622E-006
        0.21432166909E-002        0.75999495454E-001        0.13310690504E-003        0.75866388549E-001        0.76000478138E-001        0.98268389341E-006
        0.21871789658E-002        0.79058931316E-001        0.13846387121E-003        0.78920467445E-001        0.79059954728E-001        0.10234115664E-005
        0.22315875582E-002        0.82207015433E-001        0.14397596687E-003        0.82063039466E-001        0.82208080825E-001        0.10653922912E-005
        0.22764424681E-002        0.85445277004E-001        0.14964586297E-003        0.85295631141E-001        0.85446385655E-001        0.11086515094E-005
        0.23217436955E-002        0.88775250279E-001        0.15547623906E-003        0.88619774040E-001        0.88776403494E-001        0.11532149184E-005
        0.23674912405E-002        0.92198474283E-001        0.16146978274E-003        0.92037004501E-001        0.92199673392E-001        0.11991084711E-005
        0.24136851029E-002        0.95716492544E-001        0.16762918925E-003        0.95548863355E-001        0.95717738903E-001        0.12463583764E-005
        0.24603252829E-002        0.99330852813E-001        0.17395716093E-003        0.99156895653E-001        0.99332147805E-001        0.12949910986E-005
        0.25074117803E-002        0.10304310679E+000        0.18045640672E-003        0.10286265039E+000        0.10304445183E+000        0.13450333578E-005
        0.25549445953E-002        0.10685480986E+000        0.18712964172E-003        0.10666768022E+000        0.10685620637E+000        0.13965121299E-005
        0.26029237278E-002        0.11076752077E+000        0.19397958665E-003        0.11057354118E+000        0.11076897023E+000        0.14494546464E-005
        0.26513491779E-002        0.11478280142E+000        0.20100896737E-003        0.11458179245E+000        0.11478430531E+000        0.15038883946E-005
        0.27002209454E-002        0.11890221651E+000        0.20822051439E-003        0.11869399600E+000        0.11890377635E+000        0.15598411173E-005
        0.27495390304E-002        0.12312733333E+000        0.21561696237E-003        0.12291171636E+000        0.12312895067E+000        0.16173408131E-005
        0.27993034330E-002        0.12745972140E+000        0.22320104959E-003        0.12723652035E+000        0.12746139782E+000        0.16764157364E-005
        0.28495141530E-002        0.13190095227E+000        0.23097551751E-003        0.13166997675E+000        0.13190268936E+000        0.17370943972E-005
        0.29001711906E-002        0.13645259917E+000        0.23894311023E-003        0.13621365606E+000        0.13645439858E+000        0.17994055612E-005
        0.29512745457E-002        0.14111623678E+000        0.24710657396E-003        0.14086913021E+000        0.14111810016E+000        0.18633782498E-005
        0.30028242183E-002        0.14589344091E+000        0.25546865659E-003        0.14563797225E+000        0.14589536995E+000        0.19290417401E-005
        0.30548202084E-002        0.15078578821E+000        0.26403210712E-003        0.15052175610E+000        0.15078778464E+000        0.19964255650E-005
        0.31072625160E-002        0.15579485594E+000        0.27279967521E-003        0.15552205626E+000        0.15579692150E+000        0.20655595129E-005
        0.31601511411E-002        0.16092222162E+000        0.28177411060E-003        0.16064044751E+000        0.16092435809E+000        0.21364736280E-005
        0.32134860838E-002        0.16616946279E+000        0.29095816268E-003        0.16587850462E+000        0.16617167199E+000        0.22091982103E-005
        0.32672673439E-002        0.17153815670E+000        0.30035457997E-003        0.17123780212E+000        0.17154044046E+000        0.22837638154E-005
        0.33214949216E-002        0.17702988004E+000        0.30996610955E-003        0.17671991393E+000        0.17703224024E+000        0.23602012546E-005
        0.33761688167E-002        0.18264620864E+000        0.31979549664E-003        0.18232641315E+000        0.18264864718E+000        0.24385415949E-005
        0.34312890294E-002        0.18838871721E+000        0.32984548402E-003        0.18805887173E+000        0.18839123603E+000        0.25188161590E-005
        0.34868555596E-002        0.19425897901E+000        0.34011881159E-003        0.19391886020E+000        0.19426158007E+000        0.26010565254E-005
