# All units in Hartree [AU] if not specified
# Convergence: Err(φ)=-inf, Err(n_e)=9.191e-10, Err(IET)=9.970e-13, Q_net=1.269e-07
# {"name":"Al", "Z":13, "Zstar":3.396078948375379, "A":26.981539,  "μ[AU]": 3.5636883880e-01, "Te[AU]": 3.675e-02, "Ti[AU]": 3.675e-02, "rs[AU]": 2.990e+00 }
   r[AU]           n[AU]           nf[AU]          nb[AU]          n_ion[AU]       φtot[AU]        δVxc/δρ[Au]     U_ei[AU]        U_ii[AU]        g_ii            
   1.000000e-03    1.413595e+05    5.851088e+00    1.413537e+05    0.000000e+00    1.294702e+04   -3.865974e+01    1.645579e+01    5.155904e+03    0.000000e+00
   1.027128e-03    1.357822e+05    5.840294e+00    1.357764e+05    0.000000e+00    1.260368e+04   -3.814654e+01    1.643750e+01    5.138406e+03    0.000000e+00
   1.054991e-03    1.304245e+05    5.763035e+00    1.304187e+05    0.000000e+00    1.226940e+04   -3.764012e+01    1.630557e+01    5.120433e+03    0.000000e+00
   1.083610e-03    1.252776e+05    5.627601e+00    1.252720e+05    0.000000e+00    1.194396e+04   -3.714040e+01    1.607485e+01    5.101973e+03    0.000000e+00
   1.113006e-03    1.203335e+05    5.580357e+00    1.203279e+05    0.000000e+00    1.162711e+04   -3.664730e+01    1.599321e+01    5.083012e+03    0.000000e+00
   1.143199e-03    1.155840e+05    5.533673e+00    1.155785e+05    0.000000e+00    1.131863e+04   -3.616072e+01    1.591346e+01    5.063537e+03    0.000000e+00
   1.174211e-03    1.110215e+05    5.434287e+00    1.110161e+05    0.000000e+00    1.101831e+04   -3.568057e+01    1.574139e+01    5.043533e+03    0.000000e+00
   1.206065e-03    1.066387e+05    5.321674e+00    1.066334e+05    0.000000e+00    1.072591e+04   -3.520677e+01    1.554598e+01    5.022987e+03    0.000000e+00
   1.238782e-03    1.024285e+05    5.300574e+00    1.024232e+05    0.000000e+00    1.044124e+04   -3.473925e+01    1.550905e+01    5.001883e+03    0.000000e+00
   1.272387e-03    9.838411e+04    5.231664e+00    9.837888e+04    0.000000e+00    1.016409e+04   -3.427790e+01    1.538798e+01    4.980207e+03    0.000000e+00
   1.306904e-03    9.449894e+04    5.120881e+00    9.449382e+04    0.000000e+00    9.894254e+03   -3.382264e+01    1.519324e+01    4.957942e+03    0.000000e+00
   1.342357e-03    9.076683e+04    5.065399e+00    9.076176e+04    0.000000e+00    9.631551e+03   -3.337341e+01    1.509490e+01    4.935074e+03    0.000000e+00
   1.378772e-03    8.718171e+04    5.022287e+00    8.717669e+04    0.000000e+00    9.375788e+03   -3.293011e+01    1.501877e+01    4.911586e+03    0.000000e+00
   1.416175e-03    8.373777e+04    4.941353e+00    8.373282e+04    0.000000e+00    9.126781e+03   -3.249267e+01    1.487404e+01    4.887460e+03    0.000000e+00
   1.454592e-03    8.042943e+04    4.829746e+00    8.042460e+04    0.000000e+00    8.884353e+03   -3.206101e+01    1.467441e+01    4.862680e+03    0.000000e+00
   1.494051e-03    7.725150e+04    4.808485e+00    7.724669e+04    0.000000e+00    8.648328e+03   -3.163506e+01    1.463593e+01    4.837227e+03    0.000000e+00
   1.534581e-03    7.419872e+04    4.752712e+00    7.419396e+04    0.000000e+00    8.418539e+03   -3.121473e+01    1.453521e+01    4.811084e+03    0.000000e+00
   1.576211e-03    7.126616e+04    4.666881e+00    7.126149e+04    0.000000e+00    8.194820e+03   -3.079994e+01    1.437963e+01    4.784232e+03    0.000000e+00
   1.618969e-03    6.844913e+04    4.591771e+00    6.844454e+04    0.000000e+00    7.977012e+03   -3.039064e+01    1.424272e+01    4.756652e+03    0.000000e+00
   1.662888e-03    6.574312e+04    4.557411e+00    6.573856e+04    0.000000e+00    7.764958e+03   -2.998674e+01    1.417995e+01    4.728323e+03    0.000000e+00
   1.707998e-03    6.314370e+04    4.495605e+00    6.313920e+04    0.000000e+00    7.558505e+03   -2.958818e+01    1.406582e+01    4.699226e+03    0.000000e+00
   1.754332e-03    6.064666e+04    4.409902e+00    6.064225e+04    0.000000e+00    7.357508e+03   -2.919486e+01    1.390818e+01    4.669339e+03    0.000000e+00
   1.801923e-03    5.824804e+04    4.357514e+00    5.824369e+04    0.000000e+00    7.161820e+03   -2.880675e+01    1.381039e+01    4.638642e+03    0.000000e+00
   1.850804e-03    5.594395e+04    4.316013e+00    5.593963e+04    0.000000e+00    6.971302e+03   -2.842375e+01    1.373359e+01    4.607112e+03    0.000000e+00
   1.901012e-03    5.373063e+04    4.252826e+00    5.372637e+04    0.000000e+00    6.785818e+03   -2.804581e+01    1.361547e+01    4.574726e+03    0.000000e+00
   1.952582e-03    5.160450e+04    4.170724e+00    5.160033e+04    0.000000e+00    6.605235e+03   -2.767284e+01    1.346132e+01    4.541462e+03    0.000000e+00
   2.005551e-03    4.956221e+04    4.130329e+00    4.955808e+04    0.000000e+00    6.429422e+03   -2.730481e+01    1.338501e+01    4.507296e+03    0.000000e+00
   2.059956e-03    4.760041e+04    4.086163e+00    4.759632e+04    0.000000e+00    6.258255e+03   -2.694162e+01    1.330089e+01    4.472203e+03    0.000000e+00
   2.115838e-03    4.571591e+04    4.024687e+00    4.571188e+04    0.000000e+00    6.091610e+03   -2.658322e+01    1.318455e+01    4.436158e+03    0.000000e+00
   2.173235e-03    4.390567e+04    3.948396e+00    4.390172e+04    0.000000e+00    5.929368e+03   -2.622953e+01    1.303835e+01    4.399135e+03    0.000000e+00
   2.232190e-03    4.216683e+04    3.912160e+00    4.216292e+04    0.000000e+00    5.771413e+03   -2.588052e+01    1.296908e+01    4.361108e+03    0.000000e+00
   2.292744e-03    4.049653e+04    3.868240e+00    4.049266e+04    0.000000e+00    5.617632e+03   -2.553610e+01    1.288425e+01    4.322049e+03    0.000000e+00
   2.354940e-03    3.889206e+04    3.810549e+00    3.888825e+04    0.000000e+00    5.467914e+03   -2.519621e+01    1.277273e+01    4.281930e+03    0.000000e+00
   2.418824e-03    3.735085e+04    3.741198e+00    3.734710e+04    0.000000e+00    5.322153e+03   -2.486080e+01    1.263763e+01    4.240723e+03    0.000000e+00
   2.484440e-03    3.587043e+04    3.703560e+00    3.586672e+04    0.000000e+00    5.180243e+03   -2.452981e+01    1.256420e+01    4.198399e+03    0.000000e+00
   2.551837e-03    3.444838e+04    3.661859e+00    3.444472e+04    0.000000e+00    5.042083e+03   -2.420318e+01    1.248267e+01    4.154926e+03    0.000000e+00
   2.621062e-03    3.308240e+04    3.609197e+00    3.307879e+04    0.000000e+00    4.907573e+03   -2.388084e+01    1.237847e+01    4.110274e+03    0.000000e+00
   2.692165e-03    3.177029e+04    3.547244e+00    3.176674e+04    0.000000e+00    4.776619e+03   -2.356274e+01    1.225645e+01    4.064411e+03    0.000000e+00
   2.765197e-03    3.050994e+04    3.504403e+00    3.050644e+04    0.000000e+00    4.649125e+03   -2.324883e+01    1.217080e+01    4.017303e+03    0.000000e+00
   2.840210e-03    2.929931e+04    3.466009e+00    2.929585e+04    0.000000e+00    4.525000e+03   -2.293905e+01    1.209467e+01    3.968918e+03    0.000000e+00
   2.917258e-03    2.813643e+04    3.418899e+00    2.813301e+04    0.000000e+00    4.404156e+03   -2.263333e+01    1.200024e+01    3.919220e+03    0.000000e+00
   2.996396e-03    2.701942e+04    3.364376e+00    2.701606e+04    0.000000e+00    4.286506e+03   -2.233164e+01    1.189061e+01    3.868174e+03    0.000000e+00
   3.077681e-03    2.594649e+04    3.313807e+00    2.594317e+04    0.000000e+00    4.171965e+03   -2.203391e+01    1.178832e+01    3.815743e+03    0.000000e+00
   3.161170e-03    2.491590e+04    3.279328e+00    2.491262e+04    0.000000e+00    4.060451e+03   -2.174009e+01    1.171813e+01    3.761889e+03    0.000000e+00
   3.246925e-03    2.392598e+04    3.237895e+00    2.392275e+04    0.000000e+00    3.951885e+03   -2.145013e+01    1.163408e+01    3.706575e+03    0.000000e+00
   3.335006e-03    2.297513e+04    3.190565e+00    2.297193e+04    0.000000e+00    3.846188e+03   -2.116398e+01    1.153671e+01    3.649760e+03    0.000000e+00
   3.425477e-03    2.206179e+04    3.138334e+00    2.205865e+04    0.000000e+00    3.743285e+03   -2.088158e+01    1.142984e+01    3.591404e+03    0.000000e+00
   3.518402e-03    2.118453e+04    3.100312e+00    2.118143e+04    0.000000e+00    3.643102e+03   -2.060289e+01    1.135095e+01    3.531465e+03    0.000000e+00
   3.613847e-03    2.034190e+04    3.064359e+00    2.033883e+04    0.000000e+00    3.545568e+03   -2.032785e+01    1.127667e+01    3.469900e+03    0.000000e+00
   3.711882e-03    1.953253e+04    3.023670e+00    1.952951e+04    0.000000e+00    3.450612e+03   -2.005642e+01    1.119199e+01    3.406665e+03    0.000000e+00
   3.812576e-03    1.875512e+04    2.979016e+00    1.875214e+04    0.000000e+00    3.358166e+03   -1.978855e+01    1.109853e+01    3.341715e+03    0.000000e+00
   3.916002e-03    1.800841e+04    2.931215e+00    1.800548e+04    0.000000e+00    3.268164e+03   -1.952419e+01    1.099822e+01    3.275002e+03    0.000000e+00
   4.022233e-03    1.729120e+04    2.896547e+00    1.728831e+04    0.000000e+00    3.180541e+03   -1.926330e+01    1.092481e+01    3.206480e+03    0.000000e+00
   4.131346e-03    1.660233e+04    2.861837e+00    1.659947e+04    0.000000e+00    3.095236e+03   -1.900582e+01    1.085164e+01    3.136099e+03    0.000000e+00
   4.243420e-03    1.594067e+04    2.823907e+00    1.593784e+04    0.000000e+00    3.012186e+03   -1.875171e+01    1.077064e+01    3.063809e+03    0.000000e+00
   4.358533e-03    1.530514e+04    2.783402e+00    1.530236e+04    0.000000e+00    2.931331e+03   -1.850093e+01    1.068444e+01    2.989557e+03    0.000000e+00
   4.476769e-03    1.469473e+04    2.740835e+00    1.469199e+04    0.000000e+00    2.852615e+03   -1.825343e+01    1.059287e+01    2.913292e+03    0.000000e+00
   4.598213e-03    1.410845e+04    2.703353e+00    1.410575e+04    0.000000e+00    2.775981e+03   -1.800916e+01    1.051227e+01    2.834957e+03    0.000000e+00
   4.722951e-03    1.354536e+04    2.671252e+00    1.354268e+04    0.000000e+00    2.701373e+03   -1.776810e+01    1.044279e+01    2.754498e+03    0.000000e+00
   4.851073e-03    1.300452e+04    2.636990e+00    1.300188e+04    0.000000e+00    2.628738e+03   -1.753018e+01    1.036813e+01    2.671855e+03    0.000000e+00
   4.982671e-03    1.248506e+04    2.601019e+00    1.248246e+04    0.000000e+00    2.558024e+03   -1.729537e+01    1.028994e+01    2.586971e+03    0.000000e+00
   5.117839e-03    1.198615e+04    2.563721e+00    1.198358e+04    0.000000e+00    2.489181e+03   -1.706363e+01    1.020776e+01    2.499784e+03    0.000000e+00
   5.256673e-03    1.150697e+04    2.525440e+00    1.150444e+04    0.000000e+00    2.422159e+03   -1.683491e+01    1.012394e+01    2.410233e+03    0.000000e+00
   5.399273e-03    1.104675e+04    2.490549e+00    1.104426e+04    0.000000e+00    2.356910e+03   -1.660917e+01    1.004639e+01    2.318251e+03    0.000000e+00
   5.545742e-03    1.060474e+04    2.460067e+00    1.060228e+04    0.000000e+00    2.293386e+03   -1.638639e+01    9.979035e+00    2.223775e+03    0.000000e+00
   5.696185e-03    1.018022e+04    2.428442e+00    1.017780e+04    0.000000e+00    2.231544e+03   -1.616650e+01    9.908453e+00    2.126735e+03    0.000000e+00
   5.850708e-03    9.772510e+03    2.395954e+00    9.770114e+03    0.000000e+00    2.171338e+03   -1.594949e+01    9.835672e+00    2.027063e+03    0.000000e+00
   6.009423e-03    9.380937e+03    2.362853e+00    9.378574e+03    0.000000e+00    2.112724e+03   -1.573530e+01    9.761398e+00    1.937248e+03    0.000000e+00
   6.172444e-03    9.004868e+03    2.329349e+00    9.002539e+03    0.000000e+00    2.055662e+03   -1.552389e+01    9.685482e+00    1.902193e+03    0.000000e+00
   6.339887e-03    8.643693e+03    2.295664e+00    8.641398e+03    0.000000e+00    2.000110e+03   -1.531524e+01    9.609360e+00    1.866187e+03    0.000000e+00
   6.511873e-03    8.296826e+03    2.262055e+00    8.294564e+03    0.000000e+00    1.946029e+03   -1.510931e+01    9.532406e+00    1.829205e+03    0.000000e+00
   6.688524e-03    7.963706e+03    2.233643e+00    7.961473e+03    0.000000e+00    1.893378e+03   -1.490605e+01    9.467757e+00    1.791219e+03    0.000000e+00
   6.869967e-03    7.643788e+03    2.204803e+00    7.641584e+03    0.000000e+00    1.842122e+03   -1.470544e+01    9.401269e+00    1.752203e+03    0.000000e+00
   7.056332e-03    7.336551e+03    2.175702e+00    7.334376e+03    0.000000e+00    1.792222e+03   -1.450744e+01    9.334284e+00    1.712128e+03    0.000000e+00
   7.247753e-03    7.041496e+03    2.146472e+00    7.039349e+03    0.000000e+00    1.743644e+03   -1.431200e+01    9.266556e+00    1.670966e+03    0.000000e+00
   7.444367e-03    6.758141e+03    2.117234e+00    6.756024e+03    0.000000e+00    1.696351e+03   -1.411910e+01    9.198426e+00    1.628688e+03    0.000000e+00
   7.646314e-03    6.486027e+03    2.088104e+00    6.483939e+03    0.000000e+00    1.650312e+03   -1.392870e+01    9.130531e+00    1.585262e+03    0.000000e+00
   7.853740e-03    6.224709e+03    2.059143e+00    6.222650e+03    0.000000e+00    1.605491e+03   -1.374078e+01    9.062265e+00    1.540659e+03    0.000000e+00
   8.066792e-03    5.973763e+03    2.030433e+00    5.971733e+03    0.000000e+00    1.561858e+03   -1.355528e+01    8.994919e+00    1.494846e+03    0.000000e+00
   8.285624e-03    5.732780e+03    2.002026e+00    5.730778e+03    0.000000e+00    1.519380e+03   -1.337219e+01    8.927318e+00    1.447790e+03    0.000000e+00
   8.510393e-03    5.501366e+03    1.973989e+00    5.499392e+03    0.000000e+00    1.478028e+03   -1.319147e+01    8.860993e+00    1.399457e+03    0.000000e+00
   8.741259e-03    5.279144e+03    1.946332e+00    5.277198e+03    0.000000e+00    1.437772e+03   -1.301309e+01    8.794734e+00    1.349813e+03    0.000000e+00
   8.978388e-03    5.065752e+03    1.919110e+00    5.063833e+03    0.000000e+00    1.398582e+03   -1.283702e+01    8.729606e+00    1.299690e+03    0.000000e+00
   9.221949e-03    4.860842e+03    1.892748e+00    4.858950e+03    0.000000e+00    1.360431e+03   -1.266322e+01    8.666035e+00    1.273499e+03    0.000000e+00
   9.472118e-03    4.664080e+03    1.867228e+00    4.662213e+03    0.000000e+00    1.323292e+03   -1.249166e+01    8.604265e+00    1.246597e+03    0.000000e+00
   9.729073e-03    4.475143e+03    1.841905e+00    4.473301e+03    0.000000e+00    1.287137e+03   -1.232233e+01    8.542845e+00    1.218965e+03    0.000000e+00
   9.992999e-03    4.293722e+03    1.816796e+00    4.291905e+03    0.000000e+00    1.251940e+03   -1.215517e+01    8.481341e+00    1.190583e+03    0.000000e+00
   1.026408e-02    4.119522e+03    1.791931e+00    4.117730e+03    0.000000e+00    1.217677e+03   -1.199017e+01    8.420674e+00    1.161432e+03    0.000000e+00
   1.054252e-02    3.952256e+03    1.767298e+00    3.950489e+03    0.000000e+00    1.184323e+03   -1.182730e+01    8.359716e+00    1.131490e+03    0.000000e+00
   1.082852e-02    3.791652e+03    1.742921e+00    3.789909e+03    0.000000e+00    1.151854e+03   -1.166652e+01    8.299788e+00    1.100736e+03    0.000000e+00
   1.112227e-02    3.637447e+03    1.718778e+00    3.635728e+03    0.000000e+00    1.120246e+03   -1.150782e+01    8.239669e+00    1.069147e+03    0.000000e+00
   1.142399e-02    3.489387e+03    1.694884e+00    3.487692e+03    0.000000e+00    1.089477e+03   -1.135115e+01    8.180244e+00    1.036702e+03    0.000000e+00
   1.173389e-02    3.347230e+03    1.671214e+00    3.345559e+03    0.000000e+00    1.059524e+03   -1.119650e+01    8.120919e+00    1.003376e+03    0.000000e+00
   1.205220e-02    3.210745e+03    1.648371e+00    3.209096e+03    0.000000e+00    1.030367e+03   -1.104384e+01    8.063453e+00    9.730926e+02    0.000000e+00
   1.237915e-02    3.079706e+03    1.626028e+00    3.078080e+03    0.000000e+00    1.001984e+03   -1.089313e+01    8.007111e+00    9.519929e+02    0.000000e+00
   1.271496e-02    2.953898e+03    1.603951e+00    2.952294e+03    0.000000e+00    9.743549e+02   -1.074436e+01    7.950907e+00    9.303209e+02    0.000000e+00
   1.305989e-02    2.833114e+03    1.582114e+00    2.831532e+03    0.000000e+00    9.474597e+02   -1.059749e+01    7.895521e+00    9.080610e+02    0.000000e+00
   1.341417e-02    2.717157e+03    1.560484e+00    2.715596e+03    0.000000e+00    9.212790e+02   -1.045251e+01    7.839882e+00    8.851972e+02    0.000000e+00
   1.377807e-02    2.605835e+03    1.539028e+00    2.604296e+03    0.000000e+00    8.957942e+02   -1.030938e+01    7.785058e+00    8.617132e+02    0.000000e+00
   1.415183e-02    2.498965e+03    1.517717e+00    2.497447e+03    0.000000e+00    8.709869e+02   -1.016808e+01    7.729901e+00    8.375921e+02    0.000000e+00
   1.453574e-02    2.396371e+03    1.496512e+00    2.394874e+03    0.000000e+00    8.468392e+02   -1.002859e+01    7.675087e+00    8.128167e+02    0.000000e+00
   1.493005e-02    2.297884e+03    1.475387e+00    2.296408e+03    0.000000e+00    8.233337e+02   -9.890878e+00    7.620050e+00    7.873691e+02    0.000000e+00
   1.533507e-02    2.203341e+03    1.454305e+00    2.201887e+03    0.000000e+00    8.004537e+02   -9.754924e+00    7.564942e+00    7.694986e+02    0.000000e+00
   1.575107e-02    2.112588e+03    1.433458e+00    2.111154e+03    0.000000e+00    7.781825e+02   -9.620704e+00    7.510237e+00    7.515956e+02    0.000000e+00
   1.617836e-02    2.025474e+03    1.414205e+00    2.024060e+03    0.000000e+00    7.565041e+02   -9.488196e+00    7.459333e+00    7.332069e+02    0.000000e+00
   1.661724e-02    1.941856e+03    1.394890e+00    1.940461e+03    0.000000e+00    7.354030e+02   -9.357375e+00    7.408338e+00    7.143193e+02    0.000000e+00
   1.706802e-02    1.861594e+03    1.375475e+00    1.860218e+03    0.000000e+00    7.148640e+02   -9.228218e+00    7.356416e+00    6.949194e+02    0.000000e+00
   1.753104e-02    1.784555e+03    1.355927e+00    1.783199e+03    0.000000e+00    6.948723e+02   -9.100701e+00    7.304471e+00    6.749932e+02    0.000000e+00
   1.800661e-02    1.710613e+03    1.336215e+00    1.709277e+03    0.000000e+00    6.754134e+02   -8.974804e+00    7.251307e+00    6.553370e+02    0.000000e+00
   1.849509e-02    1.639645e+03    1.317813e+00    1.638327e+03    0.000000e+00    6.564734e+02   -8.850507e+00    7.201948e+00    6.403164e+02    0.000000e+00
   1.899681e-02    1.571533e+03    1.299754e+00    1.570234e+03    0.000000e+00    6.380386e+02   -8.727787e+00    7.152917e+00    6.248884e+02    0.000000e+00
   1.951215e-02    1.506164e+03    1.281395e+00    1.504883e+03    0.000000e+00    6.200958e+02   -8.606620e+00    7.103098e+00    6.090418e+02    0.000000e+00
   2.004146e-02    1.443429e+03    1.262712e+00    1.442166e+03    0.000000e+00    6.026319e+02   -8.486986e+00    7.052022e+00    5.927653e+02    0.000000e+00
   2.058514e-02    1.383224e+03    1.245162e+00    1.381979e+03    0.000000e+00    5.856344e+02   -8.368868e+00    7.003874e+00    5.760473e+02    0.000000e+00
   2.114356e-02    1.325449e+03    1.227923e+00    1.324221e+03    0.000000e+00    5.690910e+02   -8.252242e+00    6.956423e+00    5.605099e+02    0.000000e+00
   2.171714e-02    1.270006e+03    1.210222e+00    1.268796e+03    0.000000e+00    5.529898e+02   -8.137088e+00    6.907318e+00    5.472768e+02    0.000000e+00
   2.230627e-02    1.216805e+03    1.192824e+00    1.215612e+03    0.000000e+00    5.373192e+02   -8.023388e+00    6.859086e+00    5.336846e+02    0.000000e+00
   2.291138e-02    1.165756e+03    1.176380e+00    1.164579e+03    0.000000e+00    5.220679e+02   -7.911122e+00    6.812944e+00    5.197237e+02    0.000000e+00
   2.353291e-02    1.116773e+03    1.159339e+00    1.115613e+03    0.000000e+00    5.072247e+02   -7.800268e+00    6.765376e+00    5.053842e+02    0.000000e+00
   2.417130e-02    1.069774e+03    1.142799e+00    1.068632e+03    0.000000e+00    4.927791e+02   -7.690811e+00    6.718509e+00    4.919377e+02    0.000000e+00
   2.482701e-02    1.024682e+03    1.126774e+00    1.023555e+03    0.000000e+00    4.787206e+02   -7.582730e+00    6.673415e+00    4.801663e+02    0.000000e+00
   2.550051e-02    9.814188e+02    1.110033e+00    9.803088e+02    0.000000e+00    4.650390e+02   -7.476005e+00    6.625635e+00    4.680756e+02    0.000000e+00
