# All units in Hartree [AU] if not specified
# Convergence: Err(φ)=-inf, Err(n_e)=5.281e-09, Err(IET)=9.924e-13, Q_net=-9.095e-13
# {"name":"Al", "Z":13, "Zstar":4.9941019747090785, "A":26.981539,  "μ[AU]": -1.1972630865e+00, "Te[AU]": 1.102e+00, "Ti[AU]": 3.675e-02, "rs[AU]": 2.990e+00 }
   r[AU]           U_ei[AU]        U_ii[AU]        g_ii            
   2.990107e-03    1.350535e+01    8.400485e+03    0.000000e+00
   5.980213e-03    1.149742e+01    4.229241e+03    0.000000e+00
   8.970320e-03    1.051413e+01    2.838433e+03    0.000000e+00
   1.196043e-02    9.887975e+00    2.142717e+03    0.000000e+00
   1.495053e-02    9.438348e+00    1.725053e+03    0.000000e+00
   1.794064e-02    9.091407e+00    1.446410e+03    0.000000e+00
   2.093075e-02    8.811819e+00    1.247216e+03    0.000000e+00
   2.392085e-02    8.579415e+00    1.097676e+03    0.000000e+00
   2.691096e-02    8.380763e+00    9.812422e+02    0.000000e+00
   2.990107e-02    8.207070e+00    8.879828e+02    0.000000e+00
   3.289117e-02    8.055336e+00    8.115809e+02    0.000000e+00
   3.588128e-02    7.918184e+00    7.478216e+02    0.000000e+00
   3.887139e-02    7.795982e+00    6.937901e+02    0.000000e+00
   4.186149e-02    7.683713e+00    6.474016e+02    0.000000e+00
   4.485160e-02    7.580898e+00    6.071297e+02    0.000000e+00
   4.784171e-02    7.486499e+00    5.718274e+02    0.000000e+00
   5.083181e-02    7.398548e+00    5.406195e+02    0.000000e+00
   5.382192e-02    7.316357e+00    5.128236e+02    0.000000e+00
   5.681203e-02    7.239332e+00    4.879024e+02    0.000000e+00
   5.980213e-02    7.167298e+00    4.654249e+02    0.000000e+00
   6.279224e-02    7.099249e+00    4.450430e+02    0.000000e+00
   6.578235e-02    7.034959e+00    4.264712e+02    0.000000e+00
   6.877245e-02    6.973839e+00    4.094744e+02    0.000000e+00
   7.176256e-02    6.915700e+00    3.938559e+02    0.000000e+00
   7.475267e-02    6.860305e+00    3.794511e+02    0.000000e+00
   7.774277e-02    6.807330e+00    3.661203e+02    0.000000e+00
   8.073288e-02    6.756641e+00    3.537448e+02    0.000000e+00
   8.372299e-02    6.707983e+00    3.422224e+02    0.000000e+00
   8.671309e-02    6.661204e+00    3.314657e+02    0.000000e+00
   8.970320e-02    6.616265e+00    3.213981e+02    0.000000e+00
   9.269331e-02    6.572891e+00    3.119537e+02    0.000000e+00
   9.568341e-02    6.532020e+00    3.030741e+02    0.000000e+00
   9.867352e-02    6.522364e+00    2.947086e+02    0.000000e+00
   1.016636e-01    6.492176e+00    2.868119e+02    0.000000e+00
   1.046537e-01    6.459451e+00    2.793445e+02    0.000000e+00
   1.076438e-01    6.426420e+00    2.722705e+02    0.000000e+00
   1.106339e-01    6.393100e+00    2.655587e+02    0.000000e+00
   1.136241e-01    6.359582e+00    2.591806e+02    0.000000e+00
   1.166142e-01    6.326012e+00    2.531109e+02    0.000000e+00
   1.196043e-01    6.292704e+00    2.473266e+02    0.000000e+00
   1.225944e-01    6.259845e+00    2.418072e+02    0.000000e+00
   1.255845e-01    6.227649e+00    2.365340e+02    0.000000e+00
   1.285746e-01    6.196292e+00    2.314901e+02    0.000000e+00
   1.315647e-01    6.166247e+00    2.266599e+02    0.000000e+00
   1.345548e-01    6.137673e+00    2.220296e+02    0.000000e+00
   1.375449e-01    6.110493e+00    2.175863e+02    0.000000e+00
   1.405350e-01    6.084764e+00    2.133183e+02    0.000000e+00
   1.435251e-01    6.061271e+00    2.092148e+02    0.000000e+00
   1.465152e-01    6.039723e+00    2.052660e+02    0.000000e+00
   1.495053e-01    6.018607e+00    2.014626e+02    0.000000e+00
   1.524954e-01    5.996925e+00    1.977965e+02    0.000000e+00
   1.554855e-01    5.969522e+00    1.942598e+02    0.000000e+00
   1.584757e-01    5.943385e+00    1.908453e+02    0.000000e+00
   1.614658e-01    5.919179e+00    1.875465e+02    0.000000e+00
   1.644559e-01    5.898385e+00    1.843572e+02    0.000000e+00
   1.674460e-01    5.879605e+00    1.812717e+02    0.000000e+00
   1.704361e-01    5.861968e+00    1.782847e+02    0.000000e+00
   1.734262e-01    5.839594e+00    1.753912e+02    0.000000e+00
   1.764163e-01    5.816999e+00    1.725866e+02    0.000000e+00
   1.794064e-01    5.794369e+00    1.698665e+02    0.000000e+00
   1.823965e-01    5.775736e+00    1.672271e+02    0.000000e+00
   1.853866e-01    5.759034e+00    1.646645e+02    0.000000e+00
   1.883767e-01    5.744407e+00    1.621751e+02    0.000000e+00
   1.913668e-01    5.722338e+00    1.597557e+02    0.000000e+00
   1.943569e-01    5.700826e+00    1.574031e+02    0.000000e+00
   1.973470e-01    5.682049e+00    1.551145e+02    0.000000e+00
   2.003371e-01    5.666292e+00    1.528870e+02    0.000000e+00
   2.033273e-01    5.651399e+00    1.507181e+02    0.000000e+00
   2.063174e-01    5.632134e+00    1.486054e+02    0.000000e+00
   2.093075e-01    5.613515e+00    1.465464e+02    0.000000e+00
   2.122976e-01    5.595757e+00    1.445392e+02    0.000000e+00
   2.152877e-01    5.581294e+00    1.425815e+02    0.000000e+00
   2.182778e-01    5.567537e+00    1.406715e+02    0.000000e+00
   2.212679e-01    5.549095e+00    1.388073e+02    0.000000e+00
   2.242580e-01    5.531593e+00    1.369872e+02    0.000000e+00
   2.272481e-01    5.515773e+00    1.352094e+02    0.000000e+00
   2.302382e-01    5.501784e+00    1.334726e+02    0.000000e+00
   2.332283e-01    5.488874e+00    1.317751e+02    0.000000e+00
   2.362184e-01    5.471793e+00    1.301156e+02    0.000000e+00
   2.392085e-01    5.454621e+00    1.284926e+02    0.000000e+00
   2.421986e-01    5.441300e+00    1.269050e+02    0.000000e+00
   2.451887e-01    5.427492e+00    1.253515e+02    0.000000e+00
   2.481789e-01    5.412653e+00    1.238309e+02    0.000000e+00
   2.511690e-01    5.397953e+00    1.223422e+02    0.000000e+00
   2.541591e-01    5.383385e+00    1.208842e+02    0.000000e+00
   2.571492e-01    5.370580e+00    1.194561e+02    0.000000e+00
   2.601393e-01    5.358588e+00    1.180567e+02    0.000000e+00
   2.631294e-01    5.343764e+00    1.166852e+02    0.000000e+00
   2.661195e-01    5.328384e+00    1.153408e+02    0.000000e+00
   2.691096e-01    5.316851e+00    1.140225e+02    0.000000e+00
   2.720997e-01    5.305200e+00    1.127296e+02    0.000000e+00
   2.750898e-01    5.290705e+00    1.114613e+02    0.000000e+00
   2.780799e-01    5.276654e+00    1.102169e+02    0.000000e+00
   2.810700e-01    5.264743e+00    1.089956e+02    0.000000e+00
   2.840601e-01    5.252601e+00    1.077968e+02    0.000000e+00
   2.870502e-01    5.239743e+00    1.066198e+02    0.000000e+00
   2.900403e-01    5.227099e+00    1.054641e+02    0.000000e+00
   2.930305e-01    5.214962e+00    1.043289e+02    0.000000e+00
   2.960206e-01    5.202966e+00    1.032138e+02    0.000000e+00
   2.990107e-01    5.191257e+00    1.021181e+02    0.000000e+00
   3.020008e-01    5.179404e+00    1.010414e+02    0.000000e+00
   3.049909e-01    5.167272e+00    9.998313e+01    0.000000e+00
   3.079810e-01    5.155549e+00    9.894280e+01    0.000000e+00
   3.109711e-01    5.144633e+00    9.791992e+01    0.000000e+00
   3.139612e-01    5.133400e+00    9.691406e+01    0.000000e+00
   3.169513e-01    5.121458e+00    9.592475e+01    0.000000e+00
   3.199414e-01    5.109926e+00    9.495160e+01    0.000000e+00
   3.229315e-01    5.099547e+00    9.399418e+01    0.000000e+00
   3.259216e-01    5.088926e+00    9.305210e+01    0.000000e+00
   3.289117e-01    5.077311e+00    9.212497e+01    0.000000e+00
   3.319018e-01    5.065873e+00    9.121245e+01    0.000000e+00
   3.348919e-01    5.055864e+00    9.031415e+01    0.000000e+00
   3.378821e-01    5.045849e+00    8.942975e+01    0.000000e+00
   3.408722e-01    5.034662e+00    8.855890e+01    0.000000e+00
   3.438623e-01    5.023475e+00    8.770131e+01    0.000000e+00
   3.468524e-01    5.013538e+00    8.685663e+01    0.000000e+00
   3.498425e-01    5.003775e+00    8.602460e+01    0.000000e+00
   3.528326e-01    4.993331e+00    8.520490e+01    0.000000e+00
   3.558227e-01    4.982640e+00    8.439727e+01    0.000000e+00
   3.588128e-01    4.972568e+00    8.360142e+01    0.000000e+00
   3.618029e-01    4.962968e+00    8.281711e+01    0.000000e+00
   3.647930e-01    4.953156e+00    8.204406e+01    0.000000e+00
   3.677831e-01    4.943003e+00    8.128205e+01    0.000000e+00
   3.707732e-01    4.932968e+00    8.053081e+01    0.000000e+00
   3.737633e-01    4.923483e+00    7.979013e+01    0.000000e+00
   3.767534e-01    4.913998e+00    7.905977e+01    0.000000e+00
   3.797435e-01    4.904399e+00    7.833953e+01    0.000000e+00
   3.827337e-01    4.894795e+00    7.762919e+01    0.000000e+00
   3.857238e-01    4.885335e+00    7.692854e+01    0.000000e+00
   3.887139e-01    4.875934e+00    7.623738e+01    0.000000e+00
   3.917040e-01    4.866689e+00    7.555552e+01    0.000000e+00
   3.946941e-01    4.857639e+00    7.488277e+01    0.000000e+00
   3.976842e-01    4.848543e+00    7.421895e+01    0.000000e+00
   4.006743e-01    4.839209e+00    7.356387e+01    0.000000e+00
   4.036644e-01    4.829875e+00    7.291738e+01    0.000000e+00
   4.066545e-01    4.821243e+00    7.227929e+01    0.000000e+00
   4.096446e-01    4.812729e+00    7.164945e+01    0.000000e+00
   4.126347e-01    4.803814e+00    7.102769e+01    0.000000e+00
   4.156248e-01    4.794546e+00    7.041387e+01    0.000000e+00
   4.186149e-01    4.785515e+00    6.980783e+01    0.000000e+00
   4.216050e-01    4.777508e+00    6.920942e+01    0.000000e+00
   4.245951e-01    4.769502e+00    6.861850e+01    0.000000e+00
   4.275853e-01    4.760511e+00    6.803494e+01    0.000000e+00
   4.305754e-01    4.751312e+00    6.745859e+01    0.000000e+00
   4.335655e-01    4.742679e+00    6.688933e+01    0.000000e+00
   4.365556e-01    4.734764e+00    6.632702e+01    0.000000e+00
   4.395457e-01    4.726816e+00    6.577155e+01    0.000000e+00
   4.425358e-01    4.718070e+00    6.522278e+01    0.000000e+00
   4.455259e-01    4.709324e+00    6.468061e+01    0.000000e+00
   4.485160e-01    4.701069e+00    6.414490e+01    0.000000e+00
   4.515061e-01    4.693119e+00    6.361557e+01    0.000000e+00
   4.544962e-01    4.685126e+00    6.309248e+01    0.000000e+00
   4.574863e-01    4.676932e+00    6.257553e+01    0.000000e+00
   4.604764e-01    4.668737e+00    6.206462e+01    0.000000e+00
   4.634665e-01    4.660709e+00    6.155965e+01    0.000000e+00
   4.664566e-01    4.652750e+00    6.106050e+01    0.000000e+00
   4.694467e-01    4.644849e+00    6.056710e+01    0.000000e+00
   4.724369e-01    4.637146e+00    6.007933e+01    0.000000e+00
   4.754270e-01    4.629443e+00    5.959712e+01    0.000000e+00
   4.784171e-01    4.621565e+00    5.912036e+01    0.000000e+00
   4.814072e-01    4.613621e+00    5.864897e+01    0.000000e+00
   4.843973e-01    4.605814e+00    5.818285e+01    0.000000e+00
   4.873874e-01    4.598544e+00    5.772193e+01    0.000000e+00
   4.903775e-01    4.591274e+00    5.726612e+01    0.000000e+00
   4.933676e-01    4.583582e+00    5.681534e+01    0.000000e+00
   4.963577e-01    4.575676e+00    5.636951e+01    0.000000e+00
   4.993478e-01    4.567852e+00    5.592856e+01    0.000000e+00
   5.023379e-01    4.560766e+00    5.549240e+01    0.000000e+00
   5.053280e-01    4.553679e+00    5.506096e+01    0.000000e+00
   5.083181e-01    4.546300e+00    5.463417e+01    0.000000e+00
   5.113082e-01    4.538649e+00    5.421196e+01    0.000000e+00
   5.142983e-01    4.530998e+00    5.379425e+01    0.000000e+00
   5.172885e-01    4.523868e+00    5.338099e+01    0.000000e+00
   5.202786e-01    4.516784e+00    5.297209e+01    0.000000e+00
   5.232687e-01    4.509650e+00    5.256751e+01    0.000000e+00
   5.262588e-01    4.502399e+00    5.216716e+01    0.000000e+00
   5.292489e-01    4.495148e+00    5.177099e+01    0.000000e+00
   5.322390e-01    4.488025e+00    5.137894e+01    0.000000e+00
   5.352291e-01    4.480968e+00    5.099096e+01    0.000000e+00
   5.382192e-01    4.473912e+00    5.060696e+01    0.000000e+00
   5.412093e-01    4.467003e+00    5.022691e+01    0.000000e+00
   5.441994e-01    4.460095e+00    4.985074e+01    0.000000e+00
   5.471895e-01    4.453156e+00    4.947840e+01    0.000000e+00
   5.501796e-01    4.446151e+00    4.910983e+01    0.000000e+00
   5.531697e-01    4.439147e+00    4.874498e+01    0.000000e+00
   5.561598e-01    4.432380e+00    4.838380e+01    0.000000e+00
   5.591499e-01    4.425760e+00    4.802624e+01    0.000000e+00
   5.621401e-01    4.419141e+00    4.767224e+01    0.000000e+00
   5.651302e-01    4.412243e+00    4.732175e+01    0.000000e+00
   5.681203e-01    4.405313e+00    4.697474e+01    0.000000e+00
   5.711104e-01    4.398468e+00    4.663114e+01    0.000000e+00
   5.741005e-01    4.392091e+00    4.629091e+01    0.000000e+00
   5.770906e-01    4.385714e+00    4.595402e+01    0.000000e+00
   5.800807e-01    4.379154e+00    4.562040e+01    0.000000e+00
   5.830708e-01    4.372317e+00    4.529002e+01    0.000000e+00
   5.860609e-01    4.365480e+00    4.496284e+01    0.000000e+00
   5.890510e-01    4.358963e+00    4.463881e+01    0.000000e+00
   5.920411e-01    4.352646e+00    4.431788e+01    0.000000e+00
   5.950312e-01    4.346328e+00    4.400003e+01    0.000000e+00
   5.980213e-01    4.339788e+00    4.368520e+01    0.000000e+00
   6.010114e-01    4.333198e+00    4.337337e+01    0.000000e+00
   6.040015e-01    4.326607e+00    4.306448e+01    0.000000e+00
   6.069917e-01    4.320366e+00    4.275850e+01    0.000000e+00
   6.099818e-01    4.314126e+00    4.245540e+01    0.000000e+00
   6.129719e-01    4.307863e+00    4.215514e+01    0.000000e+00
   6.159620e-01    4.301482e+00    4.185767e+01    0.000000e+00
   6.189521e-01    4.295102e+00    4.156297e+01    0.000000e+00
   6.219422e-01    4.288792e+00    4.127100e+01    0.000000e+00
   6.249323e-01    4.282645e+00    4.098173e+01    0.000000e+00
   6.279224e-01    4.276499e+00    4.069512e+01    0.000000e+00
   6.309125e-01    4.270327e+00    4.041114e+01    0.000000e+00
   6.339026e-01    4.264121e+00    4.012975e+01    0.000000e+00
   6.368927e-01    4.257914e+00    3.985093e+01    0.000000e+00
   6.398828e-01    4.251795e+00    3.957463e+01    0.000000e+00
   6.428729e-01    4.245758e+00    3.930084e+01    0.000000e+00
   6.458630e-01    4.239720e+00    3.902952e+01    0.000000e+00
   6.488531e-01    4.233667e+00    3.876064e+01    0.000000e+00
   6.518433e-01    4.227604e+00    3.849417e+01    0.000000e+00
   6.548334e-01    4.221541e+00    3.823008e+01    0.000000e+00
   6.578235e-01    4.215576e+00    3.796834e+01    0.000000e+00
   6.608136e-01    4.209660e+00    3.770893e+01    0.000000e+00
   6.638037e-01    4.203743e+00    3.745181e+01    0.000000e+00
   6.667938e-01    4.197810e+00    3.719697e+01    0.000000e+00
   6.697839e-01    4.191869e+00    3.694436e+01    0.000000e+00
   6.727740e-01    4.185928e+00    3.669398e+01    0.000000e+00
   6.757641e-01    4.180101e+00    3.644578e+01    0.000000e+00
   6.787542e-01    4.174315e+00    3.619975e+01    0.000000e+00
   6.817443e-01    4.168529e+00    3.595585e+01    0.000000e+00
   6.847344e-01    4.162705e+00    3.571407e+01    0.000000e+00
   6.877245e-01    4.156868e+00    3.547438e+01    0.000000e+00
   6.907146e-01    4.151030e+00    3.523676e+01    0.000000e+00
   6.937047e-01    4.145330e+00    3.500118e+01    0.000000e+00
   6.966949e-01    4.139683e+00    3.476761e+01    0.000000e+00
   6.996850e-01    4.134035e+00    3.453605e+01    0.000000e+00
   7.026751e-01    4.128320e+00    3.430645e+01    0.000000e+00
   7.056652e-01    4.122573e+00    3.407881e+01    0.000000e+00
   7.086553e-01    4.116825e+00    3.385309e+01    0.000000e+00
   7.116454e-01    4.111219e+00    3.362928e+01    0.000000e+00
   7.146355e-01    4.105696e+00    3.340736e+01    0.000000e+00
   7.176256e-01    4.100174e+00    3.318730e+01    0.000000e+00
   7.206157e-01    4.094583e+00    3.296909e+01    0.000000e+00
   7.236058e-01    4.088935e+00    3.275270e+01    0.000000e+00
   7.265959e-01    4.083288e+00    3.253811e+01    0.000000e+00
   7.295860e-01    4.077719e+00    3.232531e+01    0.000000e+00
   7.325761e-01    4.072247e+00    3.211427e+01    0.000000e+00
   7.355662e-01    4.066775e+00    3.190498e+01    0.000000e+00
   7.385563e-01    4.061302e+00    3.169741e+01    0.000000e+00
   7.415465e-01    4.055827e+00    3.149155e+01    0.000000e+00
   7.445366e-01    4.050352e+00    3.128738e+01    0.000000e+00
   7.475267e-01    4.044888e+00    3.108487e+01    0.000000e+00
   7.505168e-01    4.039466e+00    3.088402e+01    0.000000e+00
   7.535069e-01    4.034044e+00    3.068481e+01    0.000000e+00
   7.564970e-01    4.028628e+00    3.048721e+01    0.000000e+00
   7.594871e-01    4.023327e+00    3.029122e+01    0.000000e+00
   7.624772e-01    4.018026e+00    3.009680e+01    0.000000e+00
   7.654673e-01    4.012725e+00    2.990396e+01    0.000000e+00
   7.684574e-01    4.007369e+00    2.971266e+01    0.000000e+00
   7.714475e-01    4.002004e+00    2.952290e+01    0.000000e+00
   7.744376e-01    3.996639e+00    2.933465e+01    0.000000e+00
   7.774277e-01    3.991355e+00    2.914791e+01    0.000000e+00
   7.804178e-01    3.986110e+00    2.896265e+01    0.000000e+00
   7.834079e-01    3.980864e+00    2.877887e+01    0.000000e+00
   7.863981e-01    3.975640e+00    2.859654e+01    0.000000e+00
   7.893882e-01    3.970439e+00    2.841565e+01    0.000000e+00
   7.923783e-01    3.965239e+00    2.823619e+01    0.000000e+00
   7.953684e-01    3.960038e+00    2.805814e+01    0.000000e+00
   7.983585e-01    3.954837e+00    2.788148e+01    0.000000e+00
   8.013486e-01    3.949636e+00    2.770621e+01    0.000000e+00
   8.043387e-01    3.944435e+00    2.753231e+01    0.000000e+00
   8.073288e-01    3.939317e+00    2.735976e+01    0.000000e+00
   8.103189e-01    3.934202e+00    2.718856e+01    0.000000e+00
   8.133090e-01    3.929086e+00    2.701868e+01    0.000000e+00
   8.162991e-01    3.924007e+00    2.685012e+01    0.000000e+00
   8.192892e-01    3.918945e+00    2.668285e+01    0.000000e+00
   8.222793e-01    3.913882e+00    2.651688e+01    0.000000e+00
   8.252694e-01    3.908816e+00    2.635218e+01    0.000000e+00
   8.282595e-01    3.903746e+00    2.618875e+01    0.000000e+00
   8.312497e-01    3.898676e+00    2.602656e+01    0.000000e+00
   8.342398e-01    3.893612e+00    2.586562e+01    0.000000e+00
   8.372299e-01    3.888608e+00    2.570590e+01    0.000000e+00
   8.402200e-01    3.883605e+00    2.554739e+01    0.000000e+00
   8.432101e-01    3.878601e+00    2.539009e+01    0.000000e+00
   8.462002e-01    3.873639e+00    2.523398e+01    0.000000e+00
   8.491903e-01    3.868691e+00    2.507904e+01    0.000000e+00
   8.521804e-01    3.863742e+00    2.492528e+01    0.000000e+00
   8.551705e-01    3.858810e+00    2.477267e+01    0.000000e+00
   8.581606e-01    3.853900e+00    2.462120e+01    0.000000e+00
   8.611507e-01    3.848991e+00    2.447087e+01    0.000000e+00
   8.641408e-01    3.844082e+00    2.432166e+01    0.000000e+00
   8.671309e-01    3.839184e+00    2.417357e+01    0.000000e+00
   8.701210e-01    3.834285e+00    2.402658e+01    0.000000e+00
   8.731111e-01    3.829387e+00    2.388067e+01    0.000000e+00
   8.761013e-01    3.824519e+00    2.373586e+01    0.000000e+00
   8.790914e-01    3.819669e+00    2.359211e+01    0.000000e+00
   8.820815e-01    3.814819e+00    2.344942e+01    0.000000e+00
   8.850716e-01    3.809979e+00    2.330778e+01    0.000000e+00
   8.880617e-01    3.805171e+00    2.316718e+01    0.000000e+00
   8.910518e-01    3.800364e+00    2.302762e+01    0.000000e+00
   8.940419e-01    3.795557e+00    2.288908e+01    0.000000e+00
   8.970320e-01    3.790780e+00    2.275154e+01    0.000000e+00
   9.000221e-01    3.786012e+00    2.261502e+01    0.000000e+00
   9.030122e-01    3.781244e+00    2.247948e+01    0.000000e+00
   9.060023e-01    3.776488e+00    2.234493e+01    0.000000e+00
   9.089924e-01    3.771756e+00    2.221136e+01    0.000000e+00
   9.119825e-01    3.767025e+00    2.207875e+01    0.000000e+00
   9.149726e-01    3.762293e+00    2.194709e+01    0.000000e+00
