# All units in Hartree [AU] if not specified
# Convergence: Err(φ)=-inf, Err(n_e)=3.458e-09, Err(IET)=9.909e-13, Q_net=0.000e+00
# {"name":"Al", "Z":13, "Zstar":4.0657388993524, "A":26.981539,  "μ[AU]": 2.5555154473e-01, "Te[AU]": 3.675e-01, "Ti[AU]": 3.675e-02, "rs[AU]": 2.990e+00 }
   r[AU]           n[AU]           nf[AU]          nb[AU]          n_ion[AU]       φtot[AU]        δVxc/δρ[Au]     U_ei[AU]        U_ii[AU]        g_ii            
   1.000000e-03    1.413615e+05    4.247919e+00    1.413572e+05    0.000000e+00    1.294726e+04   -3.865992e+01    1.428531e+01    7.394791e+03    0.000000e+00
   1.373798e-03    8.765853e+04    3.628302e+00    8.765490e+04    0.000000e+00    9.410119e+03   -3.298976e+01    1.309450e+01    7.049211e+03    0.000000e+00
   1.806827e-03    5.801043e+04    3.117344e+00    5.800732e+04    0.000000e+00    7.142408e+03   -2.876772e+01    1.206354e+01    6.648871e+03    0.000000e+00
   2.299087e-03    4.032823e+04    2.769772e+00    4.032546e+04    0.000000e+00    5.602139e+03   -2.550088e+01    1.133160e+01    6.193771e+03    0.000000e+00
   2.850578e-03    2.913839e+04    2.480490e+00    2.913591e+04    0.000000e+00    4.508491e+03   -2.289723e+01    1.069972e+01    5.683912e+03    0.000000e+00
   3.461299e-03    2.171666e+04    3.540893e+00    2.171312e+04    0.000000e+00    3.704148e+03   -2.077283e+01    1.292177e+01    5.119293e+03    0.000000e+00
   4.131252e-03    1.660287e+04    3.236801e+00    1.659963e+04    0.000000e+00    3.095420e+03   -1.900603e+01    1.230920e+01    4.499914e+03    0.000000e+00
   4.860435e-03    1.296632e+04    2.983977e+00    1.296333e+04    0.000000e+00    2.623687e+03   -1.751313e+01    1.178568e+01    3.825776e+03    0.000000e+00
   5.648849e-03    1.031063e+04    2.761578e+00    1.030787e+04    0.000000e+00    2.250747e+03   -1.623469e+01    1.131379e+01    3.096879e+03    0.000000e+00
   6.496494e-03    8.326781e+03    2.572702e+00    8.324208e+03    0.000000e+00    1.950844e+03   -1.512732e+01    1.090306e+01    2.631402e+03    0.000000e+00
   7.403370e-03    6.815524e+03    2.405776e+00    6.813118e+03    0.000000e+00    1.706097e+03   -1.415859e+01    1.053259e+01    2.351886e+03    0.000000e+00
   8.369476e-03    5.644470e+03    2.258177e+00    5.642212e+03    0.000000e+00    1.503783e+03   -1.330381e+01    1.019812e+01    2.054115e+03    0.000000e+00
   9.394814e-03    4.723322e+03    2.127671e+00    4.721194e+03    0.000000e+00    1.334643e+03   -1.254382e+01    9.896453e+00    1.803490e+03    0.000000e+00
   1.047938e-02    3.989050e+03    2.010551e+00    3.987040e+03    0.000000e+00    1.191816e+03   -1.186352e+01    9.620816e+00    1.636307e+03    0.000000e+00
   1.162318e-02    3.396763e+03    1.906491e+00    3.394857e+03    0.000000e+00    1.070124e+03   -1.125088e+01    9.371907e+00    1.459994e+03    0.000000e+00
   1.282621e-02    2.913891e+03    1.811375e+00    2.912080e+03    0.000000e+00    9.656036e+02   -1.069616e+01    9.140344e+00    1.327909e+03    0.000000e+00
   1.408847e-02    2.516423e+03    1.724112e+00    2.514698e+03    0.000000e+00    8.751794e+02   -1.019144e+01    8.924409e+00    1.211129e+03    0.000000e+00
   1.540996e-02    2.186393e+03    1.644949e+00    2.184748e+03    0.000000e+00    7.964341e+02   -9.730142e+00    8.725843e+00    1.103027e+03    0.000000e+00
   1.679069e-02    1.910179e+03    1.573364e+00    1.908606e+03    0.000000e+00    7.274472e+02   -9.306834e+00    8.543356e+00    1.017833e+03    0.000000e+00
   1.823064e-02    1.677321e+03    1.505991e+00    1.675815e+03    0.000000e+00    6.666775e+02   -8.916932e+00    8.369401e+00    9.340916e+02    0.000000e+00
   1.972983e-02    1.479705e+03    1.444553e+00    1.478260e+03    0.000000e+00    6.128762e+02   -8.556577e+00    8.208621e+00    8.679881e+02    0.000000e+00
   2.128824e-02    1.310967e+03    1.387617e+00    1.309579e+03    0.000000e+00    5.650231e+02   -8.222478e+00    8.057425e+00    8.032073e+02    0.000000e+00
   2.290589e-02    1.166068e+03    1.334431e+00    1.164734e+03    0.000000e+00    5.222778e+02   -7.911818e+00    7.914630e+00    7.496834e+02    0.000000e+00
   2.458276e-02    1.040987e+03    1.284429e+00    1.039703e+03    0.000000e+00    4.839435e+02   -7.622172e+00    7.778809e+00    6.990563e+02    0.000000e+00
   2.631887e-02    9.324891e+02    1.238573e+00    9.312505e+02    0.000000e+00    4.494381e+02   -7.351444e+00    7.652645e+00    6.543514e+02    0.000000e+00
   2.811421e-02    8.379459e+02    1.195160e+00    8.367507e+02    0.000000e+00    4.182723e+02   -7.097800e+00    7.531764e+00    6.143013e+02    0.000000e+00
   2.996878e-02    7.552147e+02    1.154457e+00    7.540602e+02    0.000000e+00    3.900327e+02   -6.859645e+00    7.417119e+00    5.763241e+02    0.000000e+00
   3.188258e-02    6.825327e+02    1.115992e+00    6.814167e+02    0.000000e+00    3.643677e+02   -6.635574e+00    7.307577e+00    5.440224e+02    0.000000e+00
   3.385561e-02    6.184432e+02    1.080021e+00    6.173632e+02    0.000000e+00    3.409771e+02   -6.424352e+00    7.204069e+00    5.134230e+02    0.000000e+00
   3.588787e-02    5.617330e+02    1.045826e+00    5.606871e+02    0.000000e+00    3.196030e+02   -6.224880e+00    7.104723e+00    4.848299e+02    0.000000e+00
   3.797937e-02    5.113887e+02    1.013707e+00    5.103750e+02    0.000000e+00    3.000231e+02   -6.036186e+00    7.010408e+00    4.598968e+02    0.000000e+00
   4.013009e-02    4.665578e+02    9.831485e-01    4.655746e+02    0.000000e+00    2.820449e+02   -5.857401e+00    6.919760e+00    4.363893e+02    0.000000e+00
   4.234005e-02    4.265204e+02    9.541420e-01    4.255663e+02    0.000000e+00    2.655010e+02   -5.687750e+00    6.832840e+00    4.144350e+02    0.000000e+00
   4.460923e-02    3.906660e+02    9.266515e-01    3.897394e+02    0.000000e+00    2.502451e+02   -5.526535e+00    6.749670e+00    3.943014e+02    0.000000e+00
   4.693765e-02    3.584740e+02    9.003994e-01    3.575736e+02    0.000000e+00    2.361494e+02   -5.373129e+00    6.669556e+00    3.759388e+02    0.000000e+00
   4.932529e-02    3.294995e+02    8.755081e-01    3.286240e+02    0.000000e+00    2.231012e+02   -5.226969e+00    6.592881e+00    3.587280e+02    0.000000e+00
   5.177217e-02    3.033598e+02    8.517113e-01    3.025081e+02    0.000000e+00    2.110014e+02   -5.087541e+00    6.518890e+00    3.426411e+02    0.000000e+00
   5.427828e-02    2.797254e+02    8.288775e-01    2.788965e+02    0.000000e+00    1.997620e+02   -4.954382e+00    6.447226e+00    3.276212e+02    0.000000e+00
   5.684362e-02    2.583114e+02    8.072385e-01    2.575042e+02    0.000000e+00    1.893054e+02   -4.827071e+00    6.378669e+00    3.135990e+02    0.000000e+00
   5.946819e-02    2.388701e+02    7.864214e-01    2.380837e+02    0.000000e+00    1.795620e+02   -4.705222e+00    6.312094e+00    3.006555e+02    0.000000e+00
   6.215199e-02    2.211863e+02    7.665573e-01    2.204198e+02    0.000000e+00    1.704702e+02   -4.588486e+00    6.247958e+00    2.885099e+02    0.000000e+00
   6.489503e-02    2.050717e+02    7.474079e-01    2.043243e+02    0.000000e+00    1.619746e+02   -4.476541e+00    6.185574e+00    2.770970e+02    0.000000e+00
   6.769729e-02    1.903616e+02    7.291079e-01    1.896325e+02    0.000000e+00    1.540257e+02   -4.369094e+00    6.125644e+00    2.663670e+02    0.000000e+00
   7.055878e-02    1.769115e+02    7.115692e-01    1.762000e+02    0.000000e+00    1.465789e+02   -4.265874e+00    6.067657e+00    2.562706e+02    0.000000e+00
   7.347951e-02    1.645937e+02    6.945830e-01    1.638991e+02    0.000000e+00    1.395942e+02   -4.166631e+00    6.010962e+00    2.467607e+02    0.000000e+00
   7.645947e-02    1.532959e+02    6.783491e-01    1.526176e+02    0.000000e+00    1.330352e+02   -4.071138e+00    5.956162e+00    2.377929e+02    0.000000e+00
   7.949865e-02    1.429186e+02    6.626664e-01    1.422560e+02    0.000000e+00    1.268693e+02   -3.979183e+00    5.902835e+00    2.293259e+02    0.000000e+00
   8.259707e-02    1.333736e+02    6.476141e-01    1.327260e+02    0.000000e+00    1.210667e+02   -3.890570e+00    5.851355e+00    2.213217e+02    0.000000e+00
   8.575472e-02    1.245823e+02    6.330507e-01    1.239492e+02    0.000000e+00    1.156006e+02   -3.805117e+00    5.801046e+00    2.137451e+02    0.000000e+00
   8.897160e-02    1.164748e+02    6.190334e-01    1.158558e+02    0.000000e+00    1.104464e+02   -3.722658e+00    5.752124e+00    2.065642e+02    0.000000e+00
   9.224771e-02    1.089888e+02    6.054798e-01    1.083833e+02    0.000000e+00    1.055818e+02   -3.643035e+00    5.704518e+00    1.997497e+02    0.000000e+00
   9.558305e-02    1.020684e+02    5.923760e-01    1.014761e+02    0.000000e+00    1.009864e+02   -3.566103e+00    5.658204e+00    1.932746e+02    0.000000e+00
   9.897762e-02    9.566367e+01    5.780712e-01    9.508560e+01    0.000000e+00    9.664148e+01   -3.491726e+00    5.607240e+00    1.871460e+02    0.000000e+00
   1.024314e-01    8.972970e+01    5.662509e-01    8.916345e+01    0.000000e+00    9.253008e+01   -3.419781e+00    5.564512e+00    1.813198e+02    0.000000e+00
   1.059445e-01    8.422604e+01    5.546946e-01    8.367134e+01    0.000000e+00    8.863651e+01   -3.350147e+00    5.522626e+00    1.757640e+02    0.000000e+00
   1.095167e-01    7.911631e+01    5.433803e-01    7.857293e+01    0.000000e+00    8.494640e+01   -3.282714e+00    5.481243e+00    1.704599e+02    0.000000e+00
   1.131482e-01    7.436771e+01    5.323177e-01    7.383539e+01    0.000000e+00    8.144653e+01   -3.217381e+00    5.440334e+00    1.653902e+02    0.000000e+00
   1.168389e-01    6.995053e+01    5.215134e-01    6.942901e+01    0.000000e+00    7.812470e+01   -3.154050e+00    5.400227e+00    1.605534e+02    0.000000e+00
   1.205889e-01    6.583786e+01    5.109707e-01    6.532689e+01    0.000000e+00    7.496971e+01   -3.092630e+00    5.360765e+00    1.559502e+02    0.000000e+00
   1.243981e-01    6.200545e+01    5.008059e-01    6.150465e+01    0.000000e+00    7.197117e+01   -3.033038e+00    5.322269e+00    1.515354e+02    0.000000e+00
   1.282665e-01    5.843106e+01    4.909678e-01    5.794009e+01    0.000000e+00    6.911950e+01   -2.975191e+00    5.284855e+00    1.472970e+02    0.000000e+00
   1.321942e-01    5.509462e+01    4.815349e-01    5.461309e+01    0.000000e+00    6.640583e+01   -2.919015e+00    5.248656e+00    1.432518e+02    0.000000e+00
   1.361810e-01    5.197785e+01    4.725564e-01    5.150529e+01    0.000000e+00    6.382193e+01   -2.864440e+00    5.213741e+00    1.393735e+02    0.000000e+00
   1.402271e-01    4.906401e+01    4.640344e-01    4.859998e+01    0.000000e+00    6.136016e+01   -2.811399e+00    5.180558e+00    1.356388e+02    0.000000e+00
   1.443325e-01    4.633792e+01    4.559655e-01    4.588195e+01    0.000000e+00    5.901345e+01   -2.759828e+00    5.148696e+00    1.320666e+02    0.000000e+00
   1.484971e-01    4.378559e+01    4.467942e-01    4.333880e+01    0.000000e+00    5.677521e+01   -2.709668e+00    5.112449e+00    1.286303e+02    0.000000e+00
   1.527209e-01    4.139427e+01    4.381723e-01    4.095610e+01    0.000000e+00    5.463929e+01   -2.660861e+00    5.078146e+00    1.253183e+02    0.000000e+00
   1.570039e-01    3.915237e+01    4.301782e-01    3.872219e+01    0.000000e+00    5.260000e+01   -2.613357e+00    5.045864e+00    1.221456e+02    0.000000e+00
   1.613462e-01    3.704910e+01    4.227567e-01    3.662635e+01    0.000000e+00    5.065199e+01   -2.567103e+00    5.015703e+00    1.190760e+02    0.000000e+00
   1.657477e-01    3.507466e+01    4.155121e-01    3.465915e+01    0.000000e+00    4.879029e+01   -2.522052e+00    4.985979e+00    1.161335e+02    0.000000e+00
   1.702084e-01    3.322004e+01    4.075271e-01    3.281251e+01    0.000000e+00    4.701027e+01   -2.478159e+00    4.953093e+00    1.132847e+02    0.000000e+00
   1.747283e-01    3.147691e+01    4.002308e-01    3.107668e+01    0.000000e+00    4.530756e+01   -2.435380e+00    4.922850e+00    1.105472e+02    0.000000e+00
   1.793075e-01    2.983761e+01    3.936041e-01    2.944400e+01    0.000000e+00    4.367811e+01   -2.393675e+00    4.894873e+00    1.078946e+02    0.000000e+00
   1.839460e-01    2.829511e+01    3.867299e-01    2.790838e+01    0.000000e+00    4.211811e+01   -2.353005e+00    4.865887e+00    1.053441e+02    0.000000e+00
   1.886436e-01    2.684289e+01    3.797092e-01    2.646318e+01    0.000000e+00    4.062398e+01   -2.313333e+00    4.836037e+00    1.028705e+02    0.000000e+00
   1.934005e-01    2.547491e+01    3.734020e-01    2.510151e+01    0.000000e+00    3.919237e+01   -2.274623e+00    4.808831e+00    1.004861e+02    0.000000e+00
   1.982166e-01    2.418566e+01    3.672418e-01    2.381842e+01    0.000000e+00    3.782014e+01   -2.236844e+00    4.782127e+00    9.817656e+01    0.000000e+00
   2.030919e-01    2.296996e+01    3.606514e-01    2.260931e+01    0.000000e+00    3.650432e+01   -2.199961e+00    4.753334e+00    9.593947e+01    0.000000e+00
   2.080265e-01    2.182309e+01    3.548173e-01    2.146827e+01    0.000000e+00    3.524215e+01   -2.163945e+00    4.727663e+00    9.377889e+01    0.000000e+00
   2.130203e-01    2.074060e+01    3.489300e-01    2.039167e+01    0.000000e+00    3.403100e+01   -2.128767e+00    4.701425e+00    9.168197e+01    0.000000e+00
   2.180734e-01    1.971842e+01    3.429175e-01    1.937550e+01    0.000000e+00    3.286840e+01   -2.094399e+00    4.674613e+00    8.964908e+01    0.000000e+00
   2.231856e-01    1.875276e+01    3.376420e-01    1.841512e+01    0.000000e+00    3.175204e+01   -2.060815e+00    4.650618e+00    8.768211e+01    0.000000e+00
   2.283571e-01    1.784009e+01    3.318191e-01    1.750827e+01    0.000000e+00    3.067973e+01   -2.027990e+00    4.624192e+00    8.577175e+01    0.000000e+00
   2.335879e-01    1.697712e+01    3.264738e-01    1.665065e+01    0.000000e+00    2.964940e+01   -1.995898e+00    4.599630e+00    8.391630e+01    0.000000e+00
   2.388778e-01    1.616082e+01    3.213190e-01    1.583950e+01    0.000000e+00    2.865909e+01   -1.964518e+00    4.575629e+00    8.211646e+01    0.000000e+00
   2.442270e-01    1.538834e+01    3.159723e-01    1.507237e+01    0.000000e+00    2.770698e+01   -1.933826e+00    4.550770e+00    8.036967e+01    0.000000e+00
   2.496354e-01    1.465704e+01    3.113018e-01    1.434574e+01    0.000000e+00    2.679131e+01   -1.903802e+00    4.528489e+00    7.867139e+01    0.000000e+00
   2.551031e-01    1.396444e+01    3.060011e-01    1.365844e+01    0.000000e+00    2.591043e+01   -1.874425e+00    4.503526e+00    7.701997e+01    0.000000e+00
   2.606300e-01    1.330827e+01    3.014094e-01    1.300686e+01    0.000000e+00    2.506280e+01   -1.845676e+00    4.481293e+00    7.541375e+01    0.000000e+00
   2.662161e-01    1.268637e+01    2.964844e-01    1.238989e+01    0.000000e+00    2.424692e+01   -1.817536e+00    4.457624e+00    7.385111e+01    0.000000e+00
   2.718614e-01    1.209674e+01    2.919876e-01    1.180475e+01    0.000000e+00    2.346141e+01   -1.789986e+00    4.435540e+00    7.233170e+01    0.000000e+00
   2.775660e-01    1.153750e+01    2.873637e-01    1.125014e+01    0.000000e+00    2.270493e+01   -1.763011e+00    4.412847e+00    7.085275e+01    0.000000e+00
   2.833298e-01    1.100692e+01    2.830046e-01    1.072391e+01    0.000000e+00    2.197624e+01   -1.736592e+00    4.391104e+00    6.941232e+01    0.000000e+00
   2.891528e-01    1.050334e+01    2.786061e-01    1.022473e+01    0.000000e+00    2.127412e+01   -1.710714e+00    4.369086e+00    6.800900e+01    0.000000e+00
   2.950351e-01    1.002524e+01    2.744126e-01    9.750825e+00    0.000000e+00    2.059746e+01   -1.685363e+00    4.347814e+00    6.664146e+01    0.000000e+00
   3.009766e-01    9.571183e+00    2.701983e-01    9.300984e+00    0.000000e+00    1.994517e+01   -1.660522e+00    4.326312e+00    6.530839e+01    0.000000e+00
   3.069773e-01    9.139823e+00    2.661911e-01    8.873632e+00    0.000000e+00    1.931623e+01   -1.636178e+00    4.305614e+00    6.400854e+01    0.000000e+00
   3.130373e-01    8.729899e+00    2.621174e-01    8.467782e+00    0.000000e+00    1.870967e+01   -1.612317e+00    4.284451e+00    6.274069e+01    0.000000e+00
   3.191565e-01    8.340229e+00    2.583136e-01    8.081915e+00    0.000000e+00    1.812456e+01   -1.588925e+00    4.264418e+00    6.150370e+01    0.000000e+00
   3.253349e-01    7.969703e+00    2.543568e-01    7.715346e+00    0.000000e+00    1.756003e+01   -1.565992e+00    4.243502e+00    6.029645e+01    0.000000e+00
   3.315726e-01    7.617277e+00    2.507673e-01    7.366510e+00    0.000000e+00    1.701523e+01   -1.543503e+00    4.224198e+00    5.911788e+01    0.000000e+00
   3.378694e-01    7.281973e+00    2.469090e-01    7.035064e+00    0.000000e+00    1.648937e+01   -1.521447e+00    4.203456e+00    5.796696e+01    0.000000e+00
   3.442256e-01    6.962870e+00    2.434251e-01    6.719445e+00    0.000000e+00    1.598169e+01   -1.499813e+00    4.184394e+00    5.684368e+01    0.000000e+00
   3.506409e-01    6.659103e+00    2.397651e-01    6.419337e+00    0.000000e+00    1.549146e+01   -1.478589e+00    4.164302e+00    5.574624e+01    0.000000e+00
   3.571155e-01    6.369863e+00    2.363320e-01    6.133530e+00    0.000000e+00    1.501799e+01   -1.457766e+00    4.145230e+00    5.467370e+01    0.000000e+00
   3.636493e-01    6.094375e+00    2.329239e-01    5.861451e+00    0.000000e+00    1.456062e+01   -1.437333e+00    4.126062e+00    5.362518e+01    0.000000e+00
   3.702423e-01    5.831919e+00    2.295323e-01    5.602386e+00    0.000000e+00    1.411872e+01   -1.417280e+00    4.106935e+00    5.259988e+01    0.000000e+00
   3.768946e-01    5.581824e+00    2.263714e-01    5.355453e+00    0.000000e+00    1.369169e+01   -1.397597e+00    4.088695e+00    5.159728e+01    0.000000e+00
   3.836061e-01    5.343439e+00    2.230257e-01    5.120413e+00    0.000000e+00    1.327896e+01   -1.378275e+00    4.069535e+00    5.061749e+01    0.000000e+00
   3.903768e-01    5.116169e+00    2.199257e-01    4.896243e+00    0.000000e+00    1.287998e+01   -1.359306e+00    4.051346e+00    4.965865e+01    0.000000e+00
   3.972068e-01    4.899436e+00    2.168004e-01    4.682635e+00    0.000000e+00    1.249423e+01   -1.340680e+00    4.033002e+00    4.872005e+01    0.000000e+00
   4.040960e-01    4.692714e+00    2.137271e-01    4.478987e+00    0.000000e+00    1.212119e+01   -1.322390e+00    4.014705e+00    4.780179e+01    0.000000e+00
   4.110444e-01    4.495485e+00    2.108475e-01    4.284638e+00    0.000000e+00    1.176041e+01   -1.304426e+00    3.997318e+00    4.690331e+01    0.000000e+00
   4.180521e-01    4.307277e+00    2.078048e-01    4.099472e+00    0.000000e+00    1.141141e+01   -1.286781e+00    3.978938e+00    4.602317e+01    0.000000e+00
   4.251189e-01    4.127638e+00    2.049432e-01    3.922695e+00    0.000000e+00    1.107376e+01   -1.269449e+00    3.961405e+00    4.516157e+01    0.000000e+00
   4.322451e-01    3.956137e+00    2.021506e-01    3.753987e+00    0.000000e+00    1.074705e+01   -1.252420e+00    3.944033e+00    4.431800e+01    0.000000e+00
   4.394304e-01    3.792372e+00    1.993094e-01    3.593063e+00    0.000000e+00    1.043086e+01   -1.235689e+00    3.926364e+00    4.349109e+01    0.000000e+00
   4.466750e-01    3.635964e+00    1.966203e-01    3.439343e+00    0.000000e+00    1.012481e+01   -1.219248e+00    3.909287e+00    4.268182e+01    0.000000e+00
   4.539788e-01    3.486550e+00    1.939375e-01    3.292612e+00    0.000000e+00    9.828534e+00   -1.203090e+00    3.892179e+00    4.188832e+01    0.000000e+00
   4.613418e-01    3.343788e+00    1.912672e-01    3.152521e+00    0.000000e+00    9.541681e+00   -1.187209e+00    3.874978e+00    4.111102e+01    0.000000e+00
   4.687641e-01    3.207356e+00    1.887239e-01    3.018631e+00    0.000000e+00    9.263910e+00   -1.171599e+00    3.858349e+00    4.034904e+01    0.000000e+00
   4.762456e-01    3.076946e+00    1.861655e-01    2.890780e+00    0.000000e+00    8.994897e+00   -1.156253e+00    3.841505e+00    3.960221e+01    0.000000e+00
