# All units in Hartree [AU] if not specified
# Convergence: Err(φ)=-inf, Err(n_e)=9.734e-09, Err(IET)=9.923e-13, Q_net=-4.547e-13
# {"name":"Al", "Z":13, "Zstar":4.0513514990638075, "A":26.981539,  "μ[AU]": 5.0273856187e-01, "Te[AU]": 1.102e-01, "Ti[AU]": 3.675e-02, "rs[AU]": 2.990e+00 }
   r[AU]           U_ei[AU]        U_ii[AU]        g_ii            
   2.990107e-03    1.522318e+01    5.509915e+03    0.000000e+00
   5.980213e-03    1.250776e+01    2.765125e+03    0.000000e+00
   8.970320e-03    1.119857e+01    1.850094e+03    0.000000e+00
   1.196043e-02    1.036236e+01    1.392499e+03    0.000000e+00
   1.495053e-02    9.781769e+00    1.117882e+03    0.000000e+00
   1.794064e-02    9.330053e+00    9.347514e+02    0.000000e+00
   2.093075e-02    8.967313e+00    8.039016e+02    0.000000e+00
   2.392085e-02    8.665450e+00    7.057262e+02    0.000000e+00
   2.691096e-02    8.409795e+00    6.293348e+02    0.000000e+00
   2.990107e-02    8.187905e+00    5.681920e+02    0.000000e+00
   3.289117e-02    7.994239e+00    5.181397e+02    0.000000e+00
   3.588128e-02    7.820650e+00    4.764051e+02    0.000000e+00
   3.887139e-02    7.667089e+00    4.410694e+02    0.000000e+00
   4.186149e-02    7.526862e+00    4.107611e+02    0.000000e+00
   4.485160e-02    7.398758e+00    3.844753e+02    0.000000e+00
   4.784171e-02    7.281845e+00    3.614576e+02    0.000000e+00
   5.083181e-02    7.173422e+00    3.411317e+02    0.000000e+00
   5.382192e-02    7.072667e+00    3.230488e+02    0.000000e+00
   5.681203e-02    6.978748e+00    3.068553e+02    0.000000e+00
   5.980213e-02    6.891387e+00    2.922675e+02    0.000000e+00
   6.279224e-02    6.809289e+00    2.790564e+02    0.000000e+00
   6.578235e-02    6.732096e+00    2.670341e+02    0.000000e+00
   6.877245e-02    6.659079e+00    2.560460e+02    0.000000e+00
   7.176256e-02    6.589965e+00    2.459627e+02    0.000000e+00
   7.475267e-02    6.524432e+00    2.366757e+02    0.000000e+00
   7.774277e-02    6.462178e+00    2.280933e+02    0.000000e+00
   8.073288e-02    6.402643e+00    2.201373e+02    0.000000e+00
   8.372299e-02    6.345812e+00    2.127406e+02    0.000000e+00
   8.671309e-02    6.291630e+00    2.058454e+02    0.000000e+00
   8.970320e-02    6.239705e+00    1.994017e+02    0.000000e+00
   9.269331e-02    6.189735e+00    1.933659e+02    0.000000e+00
   9.568341e-02    6.141582e+00    1.876998e+02    0.000000e+00
   9.867352e-02    6.095297e+00    1.823698e+02    0.000000e+00
   1.016636e-01    6.051186e+00    1.773463e+02    0.000000e+00
   1.046537e-01    6.008401e+00    1.726032e+02    0.000000e+00
   1.076438e-01    5.967016e+00    1.681171e+02    0.000000e+00
   1.106339e-01    5.927029e+00    1.638673e+02    0.000000e+00
   1.136241e-01    5.888301e+00    1.598351e+02    0.000000e+00
   1.166142e-01    5.850725e+00    1.560039e+02    0.000000e+00
   1.196043e-01    5.814509e+00    1.523586e+02    0.000000e+00
   1.225944e-01    5.779396e+00    1.488857e+02    0.000000e+00
   1.255845e-01    5.745169e+00    1.455729e+02    0.000000e+00
   1.285746e-01    5.711700e+00    1.424092e+02    0.000000e+00
   1.315647e-01    5.679560e+00    1.393843e+02    0.000000e+00
   1.345548e-01    5.648278e+00    1.364891e+02    0.000000e+00
   1.375449e-01    5.617677e+00    1.337151e+02    0.000000e+00
   1.405350e-01    5.587744e+00    1.310547e+02    0.000000e+00
   1.435251e-01    5.558917e+00    1.285008e+02    0.000000e+00
   1.465152e-01    5.530641e+00    1.260469e+02    0.000000e+00
   1.495053e-01    5.502891e+00    1.236871e+02    0.000000e+00
   1.524954e-01    5.475777e+00    1.214158e+02    0.000000e+00
   1.554855e-01    5.449616e+00    1.192281e+02    0.000000e+00
   1.584757e-01    5.423878e+00    1.171191e+02    0.000000e+00
   1.614658e-01    5.398532e+00    1.150846e+02    0.000000e+00
   1.644559e-01    5.374047e+00    1.131205e+02    0.000000e+00
   1.674460e-01    5.349908e+00    1.112231e+02    0.000000e+00
   1.704361e-01    5.326099e+00    1.093889e+02    0.000000e+00
   1.734262e-01    5.303116e+00    1.076146e+02    0.000000e+00
   1.764163e-01    5.280528e+00    1.058974e+02    0.000000e+00
   1.794064e-01    5.258263e+00    1.042342e+02    0.000000e+00
   1.823965e-01    5.236545e+00    1.026225e+02    0.000000e+00
   1.853866e-01    5.215168e+00    1.010599e+02    0.000000e+00
   1.883767e-01    5.194159e+00    9.954403e+01    0.000000e+00
   1.913668e-01    5.173590e+00    9.807269e+01    0.000000e+00
   1.943569e-01    5.153313e+00    9.664390e+01    0.000000e+00
   1.973470e-01    5.133564e+00    9.525571e+01    0.000000e+00
   2.003371e-01    5.114065e+00    9.390637e+01    0.000000e+00
   2.033273e-01    5.094725e+00    9.259416e+01    0.000000e+00
   2.063174e-01    5.076047e+00    9.131750e+01    0.000000e+00
   2.093075e-01    5.057532e+00    9.007489e+01    0.000000e+00
   2.122976e-01    5.039237e+00    8.886492e+01    0.000000e+00
   2.152877e-01    5.021343e+00    8.768623e+01    0.000000e+00
   2.182778e-01    5.003610e+00    8.653758e+01    0.000000e+00
   2.212679e-01    4.986330e+00    8.541776e+01    0.000000e+00
   2.242580e-01    4.969185e+00    8.432565e+01    0.000000e+00
   2.272481e-01    4.952285e+00    8.326016e+01    0.000000e+00
   2.302382e-01    4.935714e+00    8.222029e+01    0.000000e+00
   2.332283e-01    4.919336e+00    8.120506e+01    0.000000e+00
   2.362184e-01    4.903241e+00    8.021356e+01    0.000000e+00
   2.392085e-01    4.887238e+00    7.924491e+01    0.000000e+00
   2.421986e-01    4.871670e+00    7.829830e+01    0.000000e+00
   2.451887e-01    4.856190e+00    7.737292e+01    0.000000e+00
   2.481789e-01    4.840897e+00    7.646804e+01    0.000000e+00
   2.511690e-01    4.825856e+00    7.558292e+01    0.000000e+00
   2.541591e-01    4.811053e+00    7.471691e+01    0.000000e+00
   2.571492e-01    4.796419e+00    7.386934e+01    0.000000e+00
   2.601393e-01    4.781863e+00    7.303960e+01    0.000000e+00
   2.631294e-01    4.767669e+00    7.222708e+01    0.000000e+00
   2.661195e-01    4.753545e+00    7.143124e+01    0.000000e+00
   2.691096e-01    4.739661e+00    7.065153e+01    0.000000e+00
   2.720997e-01    4.725815e+00    6.988742e+01    0.000000e+00
   2.750898e-01    4.712336e+00    6.913843e+01    0.000000e+00
   2.780799e-01    4.698892e+00    6.840409e+01    0.000000e+00
   2.810700e-01    4.685621e+00    6.768393e+01    0.000000e+00
   2.840601e-01    4.672446e+00    6.697754e+01    0.000000e+00
   2.870502e-01    4.659572e+00    6.628448e+01    0.000000e+00
   2.900403e-01    4.646756e+00    6.560436e+01    0.000000e+00
   2.930305e-01    4.634082e+00    6.493679e+01    0.000000e+00
   2.960206e-01    4.621519e+00    6.428142e+01    0.000000e+00
   2.990107e-01    4.609183e+00    6.363789e+01    0.000000e+00
   3.020008e-01    4.596914e+00    6.300585e+01    0.000000e+00
   3.049909e-01    4.584773e+00    6.238498e+01    0.000000e+00
   3.079810e-01    4.572740e+00    6.177497e+01    0.000000e+00
   3.109711e-01    4.560921e+00    6.117552e+01    0.000000e+00
   3.139612e-01    4.549155e+00    6.058633e+01    0.000000e+00
   3.169513e-01    4.537512e+00    6.000713e+01    0.000000e+00
   3.199414e-01    4.525950e+00    5.943765e+01    0.000000e+00
   3.229315e-01    4.514621e+00    5.887763e+01    0.000000e+00
   3.259216e-01    4.503320e+00    5.832682e+01    0.000000e+00
   3.289117e-01    4.492136e+00    5.778498e+01    0.000000e+00
   3.319018e-01    4.480986e+00    5.725187e+01    0.000000e+00
   3.348919e-01    4.470113e+00    5.672728e+01    0.000000e+00
   3.378821e-01    4.459241e+00    5.621098e+01    0.000000e+00
   3.408722e-01    4.448478e+00    5.570278e+01    0.000000e+00
   3.438623e-01    4.437715e+00    5.520246e+01    0.000000e+00
   3.468524e-01    4.427236e+00    5.470983e+01    0.000000e+00
   3.498425e-01    4.416797e+00    5.422471e+01    0.000000e+00
   3.528326e-01    4.406428e+00    5.374691e+01    0.000000e+00
   3.558227e-01    4.396085e+00    5.327626e+01    0.000000e+00
   3.588128e-01    4.385905e+00    5.281259e+01    0.000000e+00
   3.618029e-01    4.375850e+00    5.235573e+01    0.000000e+00
   3.647930e-01    4.365834e+00    5.190553e+01    0.000000e+00
   3.677831e-01    4.355879e+00    5.146183e+01    0.000000e+00
   3.707732e-01    4.345969e+00    5.102448e+01    0.000000e+00
   3.737633e-01    4.336271e+00    5.059334e+01    0.000000e+00
   3.767534e-01    4.326573e+00    5.016827e+01    0.000000e+00
   3.797435e-01    4.316987e+00    4.974913e+01    0.000000e+00
   3.827337e-01    4.307407e+00    4.933579e+01    0.000000e+00
   3.857238e-01    4.297976e+00    4.892812e+01    0.000000e+00
   3.887139e-01    4.288607e+00    4.852601e+01    0.000000e+00
   3.917040e-01    4.279301e+00    4.812933e+01    0.000000e+00
   3.946941e-01    4.270075e+00    4.773796e+01    0.000000e+00
   3.976842e-01    4.260876e+00    4.735180e+01    0.000000e+00
   4.006743e-01    4.251818e+00    4.697073e+01    0.000000e+00
   4.036644e-01    4.242759e+00    4.659464e+01    0.000000e+00
   4.066545e-01    4.233830e+00    4.622344e+01    0.000000e+00
   4.096446e-01    4.224923e+00    4.585703e+01    0.000000e+00
   4.126347e-01    4.216100e+00    4.549530e+01    0.000000e+00
   4.156248e-01    4.207350e+00    4.513816e+01    0.000000e+00
   4.186149e-01    4.198628e+00    4.478552e+01    0.000000e+00
   4.216050e-01    4.190022e+00    4.443730e+01    0.000000e+00
   4.245951e-01    4.181417e+00    4.409339e+01    0.000000e+00
   4.275853e-01    4.172914e+00    4.375373e+01    0.000000e+00
   4.305754e-01    4.164434e+00    4.341822e+01    0.000000e+00
   4.335655e-01    4.156029e+00    4.308679e+01    0.000000e+00
   4.365556e-01    4.147719e+00    4.275936e+01    0.000000e+00
   4.395457e-01    4.139412e+00    4.243585e+01    0.000000e+00
   4.425358e-01    4.131188e+00    4.211619e+01    0.000000e+00
   4.455259e-01    4.122964e+00    4.180031e+01    0.000000e+00
   4.485160e-01    4.114858e+00    4.148813e+01    0.000000e+00
   4.515061e-01    4.106827e+00    4.117960e+01    0.000000e+00
   4.544962e-01    4.098806e+00    4.087464e+01    0.000000e+00
   4.574863e-01    4.090832e+00    4.057318e+01    0.000000e+00
   4.604764e-01    4.082859e+00    4.027517e+01    0.000000e+00
   4.634665e-01    4.075022e+00    3.998055e+01    0.000000e+00
   4.664566e-01    4.067240e+00    3.968925e+01    0.000000e+00
   4.694467e-01    4.059473e+00    3.940121e+01    0.000000e+00
   4.724369e-01    4.051756e+00    3.911638e+01    0.000000e+00
   4.754270e-01    4.044038e+00    3.883471e+01    0.000000e+00
   4.784171e-01    4.036436e+00    3.855613e+01    0.000000e+00
   4.814072e-01    4.028876e+00    3.828060e+01    0.000000e+00
   4.843973e-01    4.021334e+00    3.800806e+01    0.000000e+00
   4.873874e-01    4.013857e+00    3.773846e+01    0.000000e+00
   4.903775e-01    4.006380e+00    3.747175e+01    0.000000e+00
   4.933676e-01    3.998986e+00    3.720790e+01    0.000000e+00
   4.963577e-01    3.991634e+00    3.694684e+01    0.000000e+00
   4.993478e-01    3.984293e+00    3.668853e+01    0.000000e+00
   5.023379e-01    3.977048e+00    3.643293e+01    0.000000e+00
   5.053280e-01    3.969804e+00    3.617999e+01    0.000000e+00
   5.083181e-01    3.962602e+00    3.592968e+01    0.000000e+00
   5.113082e-01    3.955438e+00    3.568194e+01    0.000000e+00
   5.142983e-01    3.948275e+00    3.543674e+01    0.000000e+00
   5.172885e-01    3.941233e+00    3.519404e+01    0.000000e+00
   5.202786e-01    3.934202e+00    3.495380e+01    0.000000e+00
   5.232687e-01    3.927189e+00    3.471598e+01    0.000000e+00
   5.262588e-01    3.920217e+00    3.448054e+01    0.000000e+00
   5.292489e-01    3.913245e+00    3.424745e+01    0.000000e+00
   5.322390e-01    3.906370e+00    3.401666e+01    0.000000e+00
   5.352291e-01    3.899545e+00    3.378816e+01    0.000000e+00
   5.382192e-01    3.892720e+00    3.356189e+01    0.000000e+00
   5.412093e-01    3.885936e+00    3.333783e+01    0.000000e+00
   5.441994e-01    3.879152e+00    3.311595e+01    0.000000e+00
   5.471895e-01    3.872412e+00    3.289621e+01    0.000000e+00
   5.501796e-01    3.865766e+00    3.267858e+01    0.000000e+00
   5.531697e-01    3.859120e+00    3.246303e+01    0.000000e+00
   5.561598e-01    3.852508e+00    3.224953e+01    0.000000e+00
   5.591499e-01    3.845919e+00    3.203805e+01    0.000000e+00
   5.621401e-01    3.839330e+00    3.182856e+01    0.000000e+00
   5.651302e-01    3.832828e+00    3.162104e+01    0.000000e+00
   5.681203e-01    3.826336e+00    3.141545e+01    0.000000e+00
   5.711104e-01    3.819858e+00    3.121176e+01    0.000000e+00
   5.741005e-01    3.813451e+00    3.100996e+01    0.000000e+00
   5.770906e-01    3.807043e+00    3.081001e+01    0.000000e+00
   5.800807e-01    3.800663e+00    3.061189e+01    0.000000e+00
   5.830708e-01    3.794323e+00    3.041558e+01    0.000000e+00
   5.860609e-01    3.787983e+00    3.022104e+01    0.000000e+00
   5.890510e-01    3.781709e+00    3.002826e+01    0.000000e+00
   5.920411e-01    3.775477e+00    2.983721e+01    0.000000e+00
   5.950312e-01    3.769245e+00    2.964787e+01    0.000000e+00
   5.980213e-01    3.763041e+00    2.946021e+01    0.000000e+00
   6.010114e-01    3.756843e+00    2.927422e+01    0.000000e+00
   6.040015e-01    3.750646e+00    2.908986e+01    0.000000e+00
   6.069917e-01    3.744576e+00    2.890713e+01    0.000000e+00
   6.099818e-01    3.738506e+00    2.872599e+01    0.000000e+00
   6.129719e-01    3.732442e+00    2.854643e+01    0.000000e+00
   6.159620e-01    3.726408e+00    2.836842e+01    0.000000e+00
   6.189521e-01    3.720373e+00    2.819195e+01    0.000000e+00
   6.219422e-01    3.714367e+00    2.801700e+01    0.000000e+00
   6.249323e-01    3.708428e+00    2.784354e+01    0.000000e+00
   6.279224e-01    3.702488e+00    2.767156e+01    0.000000e+00
   6.309125e-01    3.696574e+00    2.750105e+01    0.000000e+00
   6.339026e-01    3.690695e+00    2.733197e+01    0.000000e+00
   6.368927e-01    3.684816e+00    2.716431e+01    0.000000e+00
   6.398828e-01    3.678968e+00    2.699807e+01    0.000000e+00
   6.428729e-01    3.673147e+00    2.683321e+01    0.000000e+00
   6.458630e-01    3.667327e+00    2.666972e+01    0.000000e+00
   6.488531e-01    3.661562e+00    2.650758e+01    0.000000e+00
   6.518433e-01    3.655832e+00    2.634678e+01    0.000000e+00
   6.548334e-01    3.650102e+00    2.618731e+01    0.000000e+00
   6.578235e-01    3.644391e+00    2.602914e+01    0.000000e+00
   6.608136e-01    3.638691e+00    2.587226e+01    0.000000e+00
   6.638037e-01    3.632990e+00    2.571666e+01    0.000000e+00
   6.667938e-01    3.627368e+00    2.556231e+01    0.000000e+00
   6.697839e-01    3.621778e+00    2.540921e+01    0.000000e+00
   6.727740e-01    3.616188e+00    2.525734e+01    0.000000e+00
   6.757641e-01    3.610617e+00    2.510669e+01    0.000000e+00
   6.787542e-01    3.605054e+00    2.495723e+01    0.000000e+00
   6.817443e-01    3.599490e+00    2.480897e+01    0.000000e+00
   6.847344e-01    3.593986e+00    2.466187e+01    0.000000e+00
   6.877245e-01    3.588502e+00    2.451594e+01    0.000000e+00
   6.907146e-01    3.583019e+00    2.437116e+01    0.000000e+00
   6.937047e-01    3.577574e+00    2.422751e+01    0.000000e+00
   6.966949e-01    3.572145e+00    2.408498e+01    0.000000e+00
   6.996850e-01    3.566715e+00    2.394356e+01    0.000000e+00
   7.026751e-01    3.561318e+00    2.380324e+01    0.000000e+00
   7.056652e-01    3.555936e+00    2.366400e+01    0.000000e+00
   7.086553e-01    3.550554e+00    2.352583e+01    0.000000e+00
   7.116454e-01    3.545221e+00    2.338872e+01    0.000000e+00
   7.146355e-01    3.539917e+00    2.325266e+01    0.000000e+00
   7.176256e-01    3.534614e+00    2.311764e+01    0.000000e+00
   7.206157e-01    3.529323e+00    2.298365e+01    0.000000e+00
   7.236058e-01    3.524041e+00    2.285066e+01    0.000000e+00
   7.265959e-01    3.518760e+00    2.271869e+01    0.000000e+00
   7.295860e-01    3.513522e+00    2.258770e+01    0.000000e+00
   7.325761e-01    3.508336e+00    2.245770e+01    0.000000e+00
   7.355662e-01    3.503149e+00    2.232867e+01    0.000000e+00
   7.385563e-01    3.497972e+00    2.220060e+01    0.000000e+00
   7.415465e-01    3.492811e+00    2.207348e+01    0.000000e+00
   7.445366e-01    3.487651e+00    2.194730e+01    0.000000e+00
   7.475267e-01    3.482503e+00    2.182205e+01    0.000000e+00
   7.505168e-01    3.477406e+00    2.169773e+01    0.000000e+00
   7.535069e-01    3.472308e+00    2.157432e+01    0.000000e+00
   7.564970e-01    3.467212e+00    2.145181e+01    0.000000e+00
   7.594871e-01    3.462165e+00    2.133019e+01    0.000000e+00
   7.624772e-01    3.457118e+00    2.120946e+01    0.000000e+00
   7.654673e-01    3.452072e+00    2.108960e+01    0.000000e+00
   7.684574e-01    3.447053e+00    2.097061e+01    0.000000e+00
   7.714475e-01    3.442039e+00    2.085248e+01    0.000000e+00
   7.744376e-01    3.437025e+00    2.073519e+01    0.000000e+00
   7.774277e-01    3.432063e+00    2.061875e+01    0.000000e+00
   7.804178e-01    3.427126e+00    2.050313e+01    0.000000e+00
   7.834079e-01    3.422189e+00    2.038835e+01    0.000000e+00
   7.863981e-01    3.417260e+00    2.027437e+01    0.000000e+00
   7.893882e-01    3.412341e+00    2.016120e+01    0.000000e+00
   7.923783e-01    3.407423e+00    2.004884e+01    0.000000e+00
   7.953684e-01    3.402521e+00    1.993726e+01    0.000000e+00
   7.983585e-01    3.397676e+00    1.982647e+01    0.000000e+00
   8.013486e-01    3.392831e+00    1.971645e+01    0.000000e+00
   8.043387e-01    3.387986e+00    1.960721e+01    0.000000e+00
   8.073288e-01    3.383170e+00    1.949872e+01    0.000000e+00
   8.103189e-01    3.378356e+00    1.939099e+01    0.000000e+00
   8.133090e-01    3.373541e+00    1.928400e+01    0.000000e+00
   8.162991e-01    3.368759e+00    1.917775e+01    0.000000e+00
   8.192892e-01    3.363991e+00    1.907224e+01    0.000000e+00
   8.222793e-01    3.359222e+00    1.896745e+01    0.000000e+00
   8.252694e-01    3.354477e+00    1.886338e+01    0.000000e+00
   8.282595e-01    3.349765e+00    1.876002e+01    0.000000e+00
   8.312497e-01    3.345053e+00    1.865737e+01    0.000000e+00
   8.342398e-01    3.340342e+00    1.855541e+01    0.000000e+00
   8.372299e-01    3.335647e+00    1.845415e+01    0.000000e+00
   8.402200e-01    3.330951e+00    1.835357e+01    0.000000e+00
   8.432101e-01    3.326256e+00    1.825368e+01    0.000000e+00
   8.462002e-01    3.321620e+00    1.815445e+01    0.000000e+00
   8.491903e-01    3.317003e+00    1.805589e+01    0.000000e+00
   8.521804e-01    3.312386e+00    1.795800e+01    0.000000e+00
   8.551705e-01    3.307776e+00    1.786075e+01    0.000000e+00
   8.581606e-01    3.303175e+00    1.776416e+01    0.000000e+00
   8.611507e-01    3.298574e+00    1.766821e+01    0.000000e+00
   8.641408e-01    3.293974e+00    1.757290e+01    0.000000e+00
   8.671309e-01    3.289424e+00    1.747821e+01    0.000000e+00
   8.701210e-01    3.284874e+00    1.738416e+01    0.000000e+00
   8.731111e-01    3.280324e+00    1.729072e+01    0.000000e+00
   8.761013e-01    3.275799e+00    1.719790e+01    0.000000e+00
   8.790914e-01    3.271287e+00    1.710569e+01    0.000000e+00
   8.820815e-01    3.266775e+00    1.701408e+01    0.000000e+00
   8.850716e-01    3.262269e+00    1.692307e+01    0.000000e+00
   8.880617e-01    3.257783e+00    1.683266e+01    0.000000e+00
   8.910518e-01    3.253297e+00    1.674283e+01    0.000000e+00
   8.940419e-01    3.248810e+00    1.665358e+01    0.000000e+00
   8.970320e-01    3.244372e+00    1.656491e+01    0.000000e+00
   9.000221e-01    3.239947e+00    1.647682e+01    0.000000e+00
   9.030122e-01    3.235522e+00    1.638929e+01    0.000000e+00
   9.060023e-01    3.231102e+00    1.630233e+01    0.000000e+00
   9.089924e-01    3.226692e+00    1.621592e+01    0.000000e+00
   9.119825e-01    3.222282e+00    1.613007e+01    0.000000e+00
   9.149726e-01    3.217871e+00    1.604477e+01    0.000000e+00
