# All units in Hartree [AU] if not specified
# Convergence: Err(φ)=-inf, Err(n_e)=6.317e-09, Err(IET)=9.487e-13, Q_net=0.000e+00
# {"name":"Al", "Z":13, "Zstar":4.048460303947734, "A":26.981539,  "μ[AU]": -1.4509142490e+00, "Te[AU]": 1.102e+00, "Ti[AU]": 1.102e+00, "rs[AU]": 2.990e+00 }
   r[AU]           n[AU]           nf[AU]          nb[AU]          n_ion[AU]       φtot[AU]        δVxc/δρ[Au]     U_ei[AU]        U_ii[AU]        g_ii            
   1.000000e-03    1.413557e+05    4.294666e+00    1.413514e+05    0.000000e+00    1.294861e+04   -3.865940e+01    1.525038e+01    7.350650e+03  -6.103387e-124
   1.373798e-03    8.765356e+04    3.651137e+00    8.764991e+04    0.000000e+00    9.411473e+03   -3.298914e+01    1.400824e+01    7.007965e+03  -4.369915e-124
   1.806827e-03    5.800617e+04    3.186728e+00    5.800299e+04    0.000000e+00    7.143761e+03   -2.876702e+01    1.306777e+01    6.610979e+03  -2.733202e-124
   2.299087e-03    4.032444e+04    2.821272e+00    4.032162e+04    0.000000e+00    5.603492e+03   -2.550008e+01    1.229511e+01    6.159693e+03  -1.311137e-124
   2.850578e-03    2.913498e+04    2.529181e+00    2.913246e+04    0.000000e+00    4.509844e+03   -2.289634e+01    1.165307e+01    5.654105e+03  -2.064726e-125
   3.461299e-03    2.171357e+04    2.292784e+00    2.171128e+04    0.000000e+00    3.705501e+03   -2.077186e+01    1.111573e+01    5.094217e+03   5.051926e-125
   4.131252e-03    1.660005e+04    2.096267e+00    1.659795e+04    0.000000e+00    3.096773e+03   -1.900496e+01    1.065442e+01    4.480028e+03   7.888626e-125
   4.860435e-03    1.296371e+04    1.928840e+00    1.296178e+04    0.000000e+00    2.625040e+03   -1.751196e+01    1.024947e+01    3.811539e+03   6.650442e-125
   5.648849e-03    1.030822e+04    1.787386e+00    1.030643e+04    0.000000e+00    2.252100e+03   -1.623343e+01    9.898339e+00    3.088748e+03   2.260911e-125
   6.496494e-03    8.324527e+03    1.662848e+00    8.322865e+03    0.000000e+00    1.952197e+03   -1.512596e+01    9.580595e+00    2.627142e+03  -3.460077e-125
   7.403370e-03    6.813420e+03    1.556129e+00    6.811865e+03    0.000000e+00    1.707450e+03   -1.415715e+01    9.302078e+00    2.349916e+03  -7.603937e-125
   8.369476e-03    5.642494e+03    1.460763e+00    5.641034e+03    0.000000e+00    1.505136e+03   -1.330228e+01    9.047258e+00    2.054584e+03  -5.966610e-125
   9.394814e-03    4.721459e+03    1.376271e+00    4.720083e+03    0.000000e+00    1.335996e+03   -1.254218e+01    8.816414e+00    1.805993e+03   6.818085e-125
   1.047938e-02    3.987291e+03    1.300856e+00    3.985990e+03    0.000000e+00    1.193169e+03   -1.186179e+01    8.605964e+00    1.640131e+03   2.335610e-124
   1.162318e-02    3.395094e+03    1.232697e+00    3.393861e+03    0.000000e+00    1.071476e+03   -1.124905e+01    8.411830e+00    1.465210e+03   1.330265e-124
   1.282621e-02    2.912304e+03    1.171008e+00    2.911133e+03    0.000000e+00    9.669561e+02   -1.069424e+01    8.232550e+00    1.334140e+03  -5.311880e-124
   1.408847e-02    2.514911e+03    1.114786e+00    2.513796e+03    0.000000e+00    8.765318e+02   -1.018942e+01    8.066286e+00    1.218240e+03  -8.697625e-124
   1.540996e-02    2.184951e+03    1.063546e+00    2.183887e+03    0.000000e+00    7.977863e+02   -9.728028e+00    7.911863e+00    1.110938e+03   9.914003e-124
   1.679069e-02    1.908798e+03    1.016482e+00    1.907782e+03    0.000000e+00    7.287993e+02   -9.304619e+00    7.767239e+00    1.026347e+03   3.407137e-123
   1.823064e-02    1.675999e+03    9.731346e-01    1.675026e+03    0.000000e+00    6.680294e+02   -8.914619e+00    7.632025e+00    9.431905e+02  -2.219666e-123
   1.972983e-02    1.478436e+03    9.329195e-01    1.477503e+03    0.000000e+00    6.142280e+02   -8.554161e+00    7.504140e+00    8.775194e+02  -1.268625e-122
   2.128824e-02    1.309747e+03    8.958490e-01    1.308851e+03    0.000000e+00    5.663746e+02   -8.219961e+00    7.384488e+00    8.131549e+02   1.044179e-122
   2.290589e-02    1.164895e+03    8.613828e-01    1.164033e+03    0.000000e+00    5.236291e+02   -7.909200e+00    7.271143e+00    7.599477e+02   4.702169e-122
   2.458276e-02    1.039857e+03    8.290963e-01    1.039028e+03    0.000000e+00    4.852946e+02   -7.619452e+00    7.163546e+00    7.096087e+02  -7.718781e-122
   2.631887e-02    9.313986e+02    7.990476e-01    9.305997e+02    0.000000e+00    4.507889e+02   -7.348618e+00    7.061633e+00    6.651381e+02  -1.414123e-121
   2.811421e-02    8.368928e+02    7.707945e-01    8.361222e+02    0.000000e+00    4.196229e+02   -7.094870e+00    6.964289e+00    6.252789e+02   5.257781e-121
   2.996878e-02    7.541969e+02    7.443204e-01    7.534527e+02    0.000000e+00    3.913830e+02   -6.856609e+00    6.871799e+00    5.874708e+02  -9.134648e-122
   3.188258e-02    6.815482e+02    7.193716e-01    6.808289e+02    0.000000e+00    3.657177e+02   -6.632432e+00    6.783206e+00    5.552875e+02  -2.441771e-120
   3.385561e-02    6.174897e+02    6.958880e-01    6.167939e+02    0.000000e+00    3.423267e+02   -6.421102e+00    6.698497e+00    5.247882e+02   5.962580e-120
   3.588787e-02    5.608089e+02    6.736535e-01    5.601353e+02    0.000000e+00    3.209523e+02   -6.221520e+00    6.617154e+00    4.962742e+02  -1.198342e-121
   3.797937e-02    5.104924e+02    6.526745e-01    5.098398e+02    0.000000e+00    3.013721e+02   -6.032716e+00    6.539233e+00    4.713870e+02  -3.305519e-119
   4.013009e-02    4.656877e+02    6.327583e-01    4.650550e+02    0.000000e+00    2.833935e+02   -5.853820e+00    6.464134e+00    4.479097e+02   1.058829e-118
   4.234005e-02    4.256753e+02    6.138574e-01    4.250615e+02    0.000000e+00    2.668491e+02   -5.684056e+00    6.391797e+00    4.259693e+02  -1.456810e-118
   4.460923e-02    3.898445e+02    5.959036e-01    3.892487e+02    0.000000e+00    2.515929e+02   -5.522727e+00    6.322116e+00    4.058314e+02  -1.971658e-118
   4.693765e-02    3.576750e+02    5.787990e-01    3.570963e+02    0.000000e+00    2.374967e+02   -5.369207e+00    6.254859e+00    3.874469e+02   1.724902e-117
   4.932529e-02    3.287217e+02    5.625072e-01    3.281593e+02    0.000000e+00    2.244481e+02   -5.222930e+00    6.189866e+00    3.702018e+02  -6.184055e-117
   5.177217e-02    3.026024e+02    5.469614e-01    3.020556e+02    0.000000e+00    2.123478e+02   -5.083384e+00    6.126957e+00    3.540684e+02   1.570949e-116
   5.427828e-02    2.789875e+02    5.321013e-01    2.784555e+02    0.000000e+00    2.011079e+02   -4.950105e+00    6.065967e+00    3.389906e+02  -2.680547e-116
   5.684362e-02    2.575920e+02    5.179061e-01    2.570742e+02    0.000000e+00    1.906507e+02   -4.822673e+00    6.006884e+00    3.248997e+02   5.872069e-117
   5.946819e-02    2.381685e+02    5.043041e-01    2.376642e+02    0.000000e+00    1.809068e+02   -4.700702e+00    5.949478e+00    3.118764e+02   1.855947e-115
   6.215199e-02    2.205014e+02    4.912378e-01    2.200102e+02    0.000000e+00    1.718144e+02   -4.583841e+00    5.893604e+00    2.996423e+02  -1.078890e-114
   6.489503e-02    2.044032e+02    4.787603e-01    2.039245e+02    0.000000e+00    1.633182e+02   -4.471772e+00    5.839537e+00    2.881327e+02   4.635366e-114
   6.769729e-02    1.897086e+02    4.667533e-01    1.892420e+02    0.000000e+00    1.553687e+02   -4.364197e+00    5.786789e+00    2.772985e+02  -1.796762e-113
   7.055878e-02    1.762732e+02    4.551935e-01    1.758181e+02    0.000000e+00    1.479213e+02   -4.260847e+00    5.735306e+00    2.670909e+02   6.704195e-113
   7.347951e-02    1.639699e+02    4.441180e-01    1.635258e+02    0.000000e+00    1.409358e+02   -4.161475e+00    5.685301e+00    2.574633e+02  -2.482210e-112
   7.645947e-02    1.526859e+02    4.334293e-01    1.522525e+02    0.000000e+00    1.343761e+02   -4.065849e+00    5.636383e+00    2.483718e+02   9.248874e-112
   7.949865e-02    1.423218e+02    4.231360e-01    1.418987e+02    0.000000e+00    1.282095e+02   -3.973760e+00    5.588632e+00    2.397756e+02  -3.475013e-111
   8.259707e-02    1.327894e+02    4.132108e-01    1.323762e+02    0.000000e+00    1.224062e+02   -3.885010e+00    5.541962e+00    2.316372e+02   1.303790e-110
   8.575472e-02    1.240102e+02    4.036249e-01    1.236067e+02    0.000000e+00    1.169393e+02   -3.799419e+00    5.496276e+00    2.239218e+02  -4.769608e-110
   8.897160e-02    1.159145e+02    3.943812e-01    1.155202e+02    0.000000e+00    1.117843e+02   -3.716819e+00    5.451622e+00    2.165977e+02   1.620085e-109
   9.224771e-02    1.084399e+02    3.854517e-01    1.080545e+02    0.000000e+00    1.069188e+02   -3.637054e+00    5.407939e+00    2.096362e+02  -4.502841e-109
   9.558305e-02    1.015304e+02    3.768110e-01    1.011537e+02    0.000000e+00    1.023225e+02   -3.559977e+00    5.365097e+00    2.030105e+02   4.706406e-109
   9.897762e-02    9.513628e+01    3.764621e-01    9.475987e+01    0.000000e+00    9.797670e+01   -3.485455e+00    5.362740e+00    1.967281e+02   6.480485e-108
   1.024314e-01    8.921249e+01    3.699496e-01    8.884259e+01    0.000000e+00    9.386436e+01   -3.413361e+00    5.329853e+00    1.907452e+02  -6.727294e-107
   1.059445e-01    8.371866e+01    3.632656e-01    8.335545e+01    0.000000e+00    8.996983e+01   -3.343575e+00    5.295766e+00    1.850301e+02   4.133750e-106
   1.095167e-01    7.861844e+01    3.563582e-01    7.826213e+01    0.000000e+00    8.627873e+01   -3.275990e+00    5.260187e+00    1.795642e+02  -1.830898e-105
   1.131482e-01    7.387903e+01    3.492616e-01    7.352981e+01    0.000000e+00    8.277782e+01   -3.210501e+00    5.223225e+00    1.743307e+02   4.751354e-105
   1.168389e-01    6.947076e+01    3.420523e-01    6.912875e+01    0.000000e+00    7.945494e+01   -3.147012e+00    5.185242e+00    1.693283e+02   1.256960e-104
   1.205889e-01    6.536674e+01    3.348316e-01    6.503196e+01    0.000000e+00    7.629886e+01   -3.085432e+00    5.146718e+00    1.645578e+02  -2.348556e-103
   1.243981e-01    6.154260e+01    3.277155e-01    6.121493e+01    0.000000e+00    7.329920e+01   -3.025675e+00    5.108246e+00    1.599743e+02   1.324048e-102
   1.282665e-01    5.797634e+01    3.208499e-01    5.765553e+01    0.000000e+00    7.044637e+01   -2.967663e+00    5.070613e+00    1.555659e+02  -2.486254e-102
   1.321942e-01    5.464775e+01    3.143351e-01    5.433345e+01    0.000000e+00    6.773151e+01   -2.911320e+00    5.034399e+00    1.513498e+02  -2.842784e-101
   1.361810e-01    5.153855e+01    3.082852e-01    5.123031e+01    0.000000e+00    6.514638e+01   -2.856573e+00    5.000288e+00    1.472999e+02   2.499253e-100
   1.402271e-01    4.863208e+01    3.027995e-01    4.832932e+01    0.000000e+00    6.268336e+01   -2.803358e+00    4.968916e+00    1.433928e+02  -4.820501e-100
   1.443325e-01    4.591311e+01    2.979590e-01    4.561519e+01    0.000000e+00    6.033536e+01   -2.751610e+00    4.940829e+00    1.396479e+02   -7.215420e-99
   1.484971e-01    4.336771e+01    2.938259e-01    4.307392e+01    0.000000e+00    5.809579e+01   -2.701270e+00    4.916475e+00    1.360386e+02    4.938972e-98
   1.527209e-01    4.098313e+01    2.886772e-01    4.069449e+01    0.000000e+00    5.595851e+01   -2.652281e+00    4.886056e+00    1.325534e+02    9.205477e-98
   1.570039e-01    3.874776e+01    2.823827e-01    3.846542e+01    0.000000e+00    5.391781e+01   -2.604591e+00    4.848606e+00    1.292076e+02   -2.438500e-96
   1.613462e-01    3.665083e+01    2.770637e-01    3.637381e+01    0.000000e+00    5.196837e+01   -2.558148e+00    4.816384e+00    1.259650e+02    2.121567e-96
   1.657477e-01    3.468260e+01    2.727557e-01    3.440989e+01    0.000000e+00    5.010520e+01   -2.512905e+00    4.789804e+00    1.228501e+02    1.136521e-94
   1.702084e-01    3.283399e+01    2.694479e-01    3.256458e+01    0.000000e+00    4.832367e+01   -2.468817e+00    4.768967e+00    1.198290e+02   -1.965453e-94
   1.747283e-01    3.109669e+01    2.639024e-01    3.083283e+01    0.000000e+00    4.661942e+01   -2.425839e+00    4.734346e+00    1.169202e+02   -5.944489e-93
   1.793075e-01    2.946308e+01    2.588617e-01    2.920426e+01    0.000000e+00    4.498839e+01   -2.383932e+00    4.702387e+00    1.140966e+02    4.797933e-93
   1.839460e-01    2.792611e+01    2.550221e-01    2.767113e+01    0.000000e+00    4.342676e+01   -2.343057e+00    4.677482e+00    1.113763e+02    3.461937e-91
   1.886436e-01    2.647927e+01    2.518542e-01    2.622746e+01    0.000000e+00    4.193097e+01   -2.303175e+00    4.656528e+00    1.087336e+02    8.083742e-91
   1.934005e-01    2.511655e+01    2.465257e-01    2.487006e+01    0.000000e+00    4.049766e+01   -2.264253e+00    4.621709e+00    1.061814e+02   -1.855235e-89
   1.982166e-01    2.383240e+01    2.425252e-01    2.358991e+01    0.000000e+00    3.912369e+01   -2.226257e+00    4.594922e+00    1.037051e+02   -1.538038e-88
   2.030919e-01    2.262171e+01    2.397804e-01    2.238196e+01    0.000000e+00    3.780610e+01   -2.189154e+00    4.575977e+00    1.013025e+02    3.954759e-88
   2.080265e-01    2.147968e+01    2.349549e-01    2.124476e+01    0.000000e+00    3.654211e+01   -2.152915e+00    4.543249e+00    9.897787e+01    1.355026e-86
   2.130203e-01    2.040195e+01    2.311734e-01    2.017081e+01    0.000000e+00    3.532910e+01   -2.117509e+00    4.517013e+00    9.671825e+01    9.156395e-86
   2.180734e-01    1.938439e+01    2.286677e-01    1.915576e+01    0.000000e+00    3.416460e+01   -2.082910e+00    4.499007e+00    9.452417e+01   -2.535529e-85
   2.231856e-01    1.842325e+01    2.240296e-01    1.819925e+01    0.000000e+00    3.304630e+01   -2.049090e+00    4.466471e+00    9.239780e+01   -9.900778e-84
   2.283571e-01    1.751499e+01    2.207503e-01    1.729427e+01    0.000000e+00    3.197200e+01   -2.016025e+00    4.442772e+00    9.032964e+01   -1.023304e-82
   2.335879e-01    1.665633e+01    2.177657e-01    1.643859e+01    0.000000e+00    3.093965e+01   -1.983690e+00    4.420856e+00    8.831809e+01   -4.263801e-82
   2.388778e-01    1.584423e+01    2.138699e-01    1.563039e+01    0.000000e+00    2.994728e+01   -1.952061e+00    4.392363e+00    8.636406e+01    3.820383e-81
   2.442270e-01    1.507585e+01    2.112783e-01    1.486460e+01    0.000000e+00    2.899305e+01   -1.921117e+00    4.372715e+00    8.446507e+01    9.818324e-80
   2.496354e-01    1.434856e+01    2.076531e-01    1.414094e+01    0.000000e+00    2.807523e+01   -1.890836e+00    4.345531e+00    8.261650e+01    1.279151e-78
   2.551031e-01    1.365990e+01    2.046382e-01    1.345529e+01    0.000000e+00    2.719216e+01   -1.861198e+00    4.322401e+00    8.081678e+01    1.231070e-77
   2.606300e-01    1.300756e+01    2.018602e-01    1.280573e+01    0.000000e+00    2.634228e+01   -1.832182e+00    4.300752e+00    7.906432e+01    8.465984e-77
   2.662161e-01    1.238941e+01    1.985514e-01    1.219089e+01    0.000000e+00    2.552412e+01   -1.803771e+00    4.274983e+00    7.735757e+01    2.018892e-76
   2.718614e-01    1.180346e+01    1.963439e-01    1.160714e+01    0.000000e+00    2.473628e+01   -1.775947e+00    4.257079e+00    7.569630e+01   -5.709193e-75
   2.775660e-01    1.124782e+01    1.928609e-01    1.105499e+01    0.000000e+00    2.397743e+01   -1.748691e+00    4.229466e+00    7.407774e+01   -1.432639e-73
   2.833298e-01    1.072076e+01    1.905694e-01    1.053021e+01    0.000000e+00    2.324631e+01   -1.721987e+00    4.210531e+00    7.249994e+01   -2.430985e-72
   2.891528e-01    1.022063e+01    1.874631e-01    1.003320e+01    0.000000e+00    2.254173e+01   -1.695820e+00    4.185187e+00    7.096155e+01   -3.649033e-71
   2.950351e-01    9.745913e+00    1.850719e-01    9.560868e+00    0.000000e+00    2.186255e+01   -1.670173e+00    4.165074e+00    6.946126e+01   -5.215625e-70
   3.009766e-01    9.295172e+00    1.822998e-01    9.112899e+00    0.000000e+00    2.120770e+01   -1.645032e+00    4.141782e+00    6.799782e+01   -7.311522e-69
   3.069773e-01    8.867060e+00    1.798803e-01    8.687206e+00    0.000000e+00    2.057616e+01   -1.620383e+00    4.121017e+00    6.656998e+01   -1.015138e-67
   3.130373e-01    8.460329e+00    1.773370e-01    8.283017e+00    0.000000e+00    1.996695e+01   -1.596212e+00    4.099044e+00    6.517658e+01   -1.388855e-66
   3.191565e-01    8.073784e+00    1.749480e-01    7.898862e+00    0.000000e+00    1.937914e+01   -1.572505e+00    4.078080e+00    6.381647e+01   -1.831106e-65
   3.253349e-01    7.706329e+00    1.725563e-01    7.533798e+00    0.000000e+00    1.881186e+01   -1.549250e+00    4.056871e+00    6.248855e+01   -2.202538e-64
   3.315726e-01    7.356922e+00    1.702443e-01    7.186703e+00    0.000000e+00    1.826427e+01   -1.526435e+00    4.036092e+00    6.119179e+01   -2.046383e-63
   3.378694e-01    7.024581e+00    1.679516e-01    6.856654e+00    0.000000e+00    1.773556e+01   -1.504048e+00    4.015257e+00    5.992516e+01   -1.324131e-63
   3.442256e-01    6.708389e+00    1.657478e-01    6.542665e+00    0.000000e+00    1.722499e+01   -1.482076e+00    3.994944e+00    5.868876e+01    6.264308e-61
   3.506409e-01    6.407483e+00    1.635175e-01    6.243989e+00    2.146994e-15    1.673181e+01   -1.460510e+00    3.974196e+00    5.748071e+01    2.077463e-59
   3.571155e-01    6.121056e+00    1.614466e-01    5.959633e+00    4.033643e-14    1.625535e+01   -1.439339e+00    3.954592e+00    5.630006e+01    4.575943e-58
   3.636493e-01    5.848339e+00    1.592561e-01    5.689106e+00    1.261640e-13    1.579494e+01   -1.418552e+00    3.933759e+00    5.514595e+01    7.556172e-57
   3.702423e-01    5.588612e+00    1.573310e-01    5.431304e+00    2.931515e-13    1.534995e+01   -1.398139e+00    3.915012e+00    5.401754e+01    7.862588e-56
   3.768946e-01    5.341199e+00    1.551644e-01    5.186057e+00    6.128325e-13    1.491978e+01   -1.378091e+00    3.893961e+00    5.291437e+01   -4.377224e-55
   3.836061e-01    5.105460e+00    1.533918e-01    4.952091e+00    1.225015e-12    1.450385e+01   -1.358398e+00    3.876175e+00    5.183663e+01   -4.458589e-53
   3.903768e-01    4.880795e+00    1.512411e-01    4.729576e+00    2.348620e-12    1.410163e+01   -1.339052e+00    3.854839e+00    5.078231e+01   -1.039965e-51
   3.972068e-01    4.666635e+00    1.496200e-01    4.517037e+00    4.362771e-12    1.371258e+01   -1.320044e+00    3.838057e+00    4.975071e+01   -1.029907e-50
   4.040960e-01    4.462445e+00    1.474829e-01    4.314984e+00    7.961281e-12    1.333620e+01   -1.301365e+00    3.816417e+00    4.874198e+01    2.084841e-49
   4.110444e-01    4.267720e+00    1.458221e-01    4.121919e+00    1.429265e-11    1.297201e+01   -1.283007e+00    3.798925e+00    4.775557e+01    9.568303e-48
   4.180521e-01    4.081986e+00    1.438857e-01    3.938121e+00    2.504262e-11    1.261957e+01   -1.264963e+00    3.778707e+00    4.678991e+01    1.154825e-46
   4.251189e-01    3.904790e+00    1.421925e-01    3.762618e+00    4.326774e-11    1.227841e+01   -1.247225e+00    3.760559e+00    4.584529e+01   -2.608227e-45
   4.322451e-01    3.735706e+00    1.404432e-01    3.595284e+00    7.370039e-11    1.194814e+01   -1.229786e+00    3.741701e+00    4.492120e+01   -1.058986e-43
   4.394304e-01    3.574333e+00    1.387247e-01    3.435629e+00    1.227999e-10    1.162834e+01   -1.212638e+00    3.722950e+00    4.401611e+01   -3.183626e-43
   4.466750e-01    3.420290e+00    1.371469e-01    3.283163e+00    2.032906e-10    1.131863e+01   -1.195775e+00    3.705369e+00    4.313119e+01    5.971272e-41
   4.539788e-01    3.273218e+00    1.354112e-01    3.137827e+00    3.297478e-10    1.101864e+01   -1.179189e+00    3.686082e+00    4.226437e+01    7.997343e-40
   4.613418e-01    3.132781e+00    1.339890e-01    2.998812e+00    5.290950e-10    1.072802e+01   -1.162876e+00    3.669680e+00    4.141615e+01   -3.282472e-38
   4.687641e-01    2.998654e+00    1.322452e-01    2.866428e+00    8.360426e-10    1.044642e+01   -1.146828e+00    3.649942e+00    4.058559e+01   -6.798356e-37
   4.762456e-01    2.870532e+00    1.307939e-01    2.739757e+00    1.305341e-09    1.017353e+01   -1.131040e+00    3.632924e+00    3.977252e+01    2.242750e-35
