# All units in Hartree [AU] if not specified
# Convergence: Err(φ)=-inf, Err(n_e)=5.281e-09, Err(IET)=9.924e-13, Q_net=-9.095e-13
# {"name":"Al", "Z":13, "Zstar":4.9941019747090785, "A":26.981539,  "μ[AU]": -1.1972630865e+00, "Te[AU]": 1.102e+00, "Ti[AU]": 3.675e-02, "rs[AU]": 2.990e+00 }
   r[AU]           n[AU]           nf[AU]          nb[AU]          n_ion[AU]       φtot[AU]        δVxc/δρ[Au]     U_ei[AU]        U_ii[AU]        g_ii            
   1.000000e-03    1.413552e+05    5.256693e+00    1.413499e+05    0.000000e+00    1.294834e+04   -3.865934e+01    1.776559e+01    1.117671e+04    0.000000e+00
   1.373798e-03    8.765306e+04    4.469542e+00    8.764859e+04    0.000000e+00    9.411202e+03   -3.298908e+01    1.634389e+01    1.065526e+04    0.000000e+00
   1.806827e-03    5.800574e+04    3.900864e+00    5.800184e+04    0.000000e+00    7.143491e+03   -2.876695e+01    1.526499e+01    1.005118e+04    0.000000e+00
   2.299087e-03    4.032406e+04    3.453659e+00    4.032060e+04    0.000000e+00    5.603222e+03   -2.550000e+01    1.438029e+01    9.364467e+03    0.000000e+00
   2.850578e-03    2.913464e+04    3.096188e+00    2.913154e+04    0.000000e+00    4.509574e+03   -2.289625e+01    1.364590e+01    8.595130e+03    0.000000e+00
   3.461299e-03    2.171326e+04    2.806875e+00    2.171045e+04    0.000000e+00    3.705231e+03   -2.077176e+01    1.303071e+01    7.743164e+03    0.000000e+00
   4.131252e-03    1.659976e+04    2.566391e+00    1.659720e+04    0.000000e+00    3.096503e+03   -1.900485e+01    1.250319e+01    6.808571e+03    0.000000e+00
   4.860435e-03    1.296344e+04    2.361565e+00    1.296108e+04    0.000000e+00    2.624769e+03   -1.751184e+01    1.204068e+01    5.791349e+03    0.000000e+00
   5.648849e-03    1.030797e+04    2.188407e+00    1.030578e+04    0.000000e+00    2.251830e+03   -1.623331e+01    1.163900e+01    4.691500e+03    0.000000e+00
   6.496494e-03    8.324299e+03    2.036081e+00    8.322263e+03    0.000000e+00    1.951926e+03   -1.512583e+01    1.127683e+01    3.989100e+03    0.000000e+00
   7.403370e-03    6.813207e+03    1.905431e+00    6.811302e+03    0.000000e+00    1.707180e+03   -1.415700e+01    1.095882e+01    3.567279e+03    0.000000e+00
   8.369476e-03    5.642294e+03    1.788712e+00    5.640505e+03    0.000000e+00    1.504865e+03   -1.330212e+01    1.066822e+01    3.117908e+03    0.000000e+00
   9.394814e-03    4.721270e+03    1.685329e+00    4.719585e+03    0.000000e+00    1.335726e+03   -1.254202e+01    1.040527e+01    2.739665e+03    0.000000e+00
   1.047938e-02    3.987112e+03    1.593064e+00    3.985519e+03    0.000000e+00    1.192898e+03   -1.186161e+01    1.016580e+01    2.487315e+03    0.000000e+00
   1.162318e-02    3.394924e+03    1.509687e+00    3.393414e+03    0.000000e+00    1.071206e+03   -1.124887e+01    9.945083e+00    2.221184e+03    0.000000e+00
   1.282621e-02    2.912143e+03    1.434215e+00    2.910709e+03    0.000000e+00    9.666857e+02   -1.069405e+01    9.741366e+00    2.021782e+03    0.000000e+00
   1.408847e-02    2.514757e+03    1.365417e+00    2.513392e+03    0.000000e+00    8.762613e+02   -1.018921e+01    9.552607e+00    1.845467e+03    0.000000e+00
   1.540996e-02    2.184804e+03    1.302738e+00    2.183501e+03    0.000000e+00    7.975158e+02   -9.727812e+00    9.377454e+00    1.682239e+03    0.000000e+00
   1.679069e-02    1.908658e+03    1.245189e+00    1.907413e+03    0.000000e+00    7.285289e+02   -9.304394e+00    9.213714e+00    1.553572e+03    0.000000e+00
   1.823064e-02    1.675864e+03    1.192151e+00    1.674672e+03    0.000000e+00    6.677589e+02   -8.914383e+00    9.060564e+00    1.427091e+03    0.000000e+00
   1.972983e-02    1.478306e+03    1.142959e+00    1.477163e+03    0.000000e+00    6.139574e+02   -8.553915e+00    8.915930e+00    1.327219e+03    0.000000e+00
   2.128824e-02    1.309623e+03    1.097654e+00    1.308525e+03    0.000000e+00    5.661040e+02   -8.219705e+00    8.780827e+00    1.229337e+03    0.000000e+00
   2.290589e-02    1.164775e+03    1.055492e+00    1.163720e+03    0.000000e+00    5.233586e+02   -7.908934e+00    8.653049e+00    1.148436e+03    0.000000e+00
   2.458276e-02    1.039742e+03    1.015999e+00    1.038726e+03    0.000000e+00    4.850240e+02   -7.619174e+00    8.531394e+00    1.071901e+03    0.000000e+00
   2.631887e-02    9.312876e+02    9.792735e-01    9.303083e+02    0.000000e+00    4.505183e+02   -7.348331e+00    8.416852e+00    1.004298e+03    0.000000e+00
   2.811421e-02    8.367856e+02    9.447397e-01    8.358409e+02    0.000000e+00    4.193522e+02   -7.094571e+00    8.307422e+00    9.437137e+02    0.000000e+00
   2.996878e-02    7.540932e+02    9.123711e-01    7.531808e+02    0.000000e+00    3.911123e+02   -6.856300e+00    8.203267e+00    8.862527e+02    0.000000e+00
   3.188258e-02    6.814478e+02    8.818593e-01    6.805659e+02    0.000000e+00    3.654470e+02   -6.632111e+00    8.103802e+00    8.373521e+02    0.000000e+00
   3.385561e-02    6.173925e+02    8.531625e-01    6.165393e+02    0.000000e+00    3.420560e+02   -6.420770e+00    8.008991e+00    7.910158e+02    0.000000e+00
   3.588787e-02    5.607145e+02    8.259825e-01    5.598885e+02    0.000000e+00    3.206815e+02   -6.221177e+00    7.917889e+00    7.477025e+02    0.000000e+00
   3.797937e-02    5.104009e+02    8.003559e-01    5.096005e+02    0.000000e+00    3.011013e+02   -6.032362e+00    7.830775e+00    7.099090e+02    0.000000e+00
   4.013009e-02    4.655988e+02    7.760160e-01    4.648228e+02    0.000000e+00    2.831226e+02   -5.853454e+00    7.746887e+00    6.742626e+02    0.000000e+00
   4.234005e-02    4.255889e+02    7.529343e-01    4.248360e+02    0.000000e+00    2.665783e+02   -5.683678e+00    7.666252e+00    6.409563e+02    0.000000e+00
   4.460923e-02    3.897605e+02    7.309954e-01    3.890295e+02    0.000000e+00    2.513220e+02   -5.522338e+00    7.588686e+00    6.103940e+02    0.000000e+00
   4.693765e-02    3.575933e+02    7.101097e-01    3.568831e+02    0.000000e+00    2.372258e+02   -5.368805e+00    7.513867e+00    5.825010e+02    0.000000e+00
   4.932529e-02    3.286421e+02    6.902023e-01    3.279519e+02    0.000000e+00    2.241771e+02   -5.222516e+00    7.441587e+00    5.563431e+02    0.000000e+00
   5.177217e-02    3.025249e+02    6.712195e-01    3.018536e+02    0.000000e+00    2.120767e+02   -5.082958e+00    7.371684e+00    5.318780e+02    0.000000e+00
   5.427828e-02    2.789119e+02    6.530867e-01    2.782588e+02    0.000000e+00    2.008368e+02   -4.949667e+00    7.304039e+00    5.090200e+02    0.000000e+00
   5.684362e-02    2.575182e+02    6.357503e-01    2.568825e+02    0.000000e+00    1.903795e+02   -4.822222e+00    7.238525e+00    4.876649e+02    0.000000e+00
   5.946819e-02    2.380965e+02    6.191496e-01    2.374773e+02    0.000000e+00    1.806356e+02   -4.700238e+00    7.174985e+00    4.679352e+02    0.000000e+00
   6.215199e-02    2.204311e+02    6.032137e-01    2.198279e+02    0.000000e+00    1.715431e+02   -4.583364e+00    7.113209e+00    4.494072e+02    0.000000e+00
   6.489503e-02    2.043345e+02    5.879799e-01    2.037465e+02    0.000000e+00    1.630469e+02   -4.471281e+00    7.053401e+00    4.319824e+02    0.000000e+00
   6.769729e-02    1.896415e+02    5.733305e-01    1.890682e+02    0.000000e+00    1.550973e+02   -4.363693e+00    6.995159e+00    4.155860e+02    0.000000e+00
   7.055878e-02    1.762076e+02    5.592361e-01    1.756484e+02    0.000000e+00    1.476498e+02   -4.260329e+00    6.938416e+00    4.001437e+02    0.000000e+00
   7.347951e-02    1.639057e+02    5.457166e-01    1.633599e+02    0.000000e+00    1.406643e+02   -4.160943e+00    6.883300e+00    3.855845e+02    0.000000e+00
   7.645947e-02    1.526230e+02    5.326779e-01    1.520903e+02    0.000000e+00    1.341045e+02   -4.065303e+00    6.829478e+00    3.718417e+02    0.000000e+00
   7.949865e-02    1.422602e+02    5.201290e-01    1.417400e+02    0.000000e+00    1.279378e+02   -3.973200e+00    6.777027e+00    3.588530e+02    0.000000e+00
   8.259707e-02    1.327291e+02    5.080362e-01    1.322210e+02    0.000000e+00    1.221344e+02   -3.884436e+00    6.725849e+00    3.465611e+02    0.000000e+00
   8.575472e-02    1.239511e+02    4.963429e-01    1.234547e+02    0.000000e+00    1.166674e+02   -3.798829e+00    6.675744e+00    3.349134e+02    0.000000e+00
   8.897160e-02    1.158566e+02    4.850940e-01    1.153715e+02    0.000000e+00    1.115123e+02   -3.716215e+00    6.626939e+00    3.238614e+02    0.000000e+00
   9.224771e-02    1.083831e+02    4.742136e-01    1.079089e+02    0.000000e+00    1.066468e+02   -3.636434e+00    6.579143e+00    3.133611e+02    0.000000e+00
   9.558305e-02    1.014747e+02    4.636914e-01    1.010110e+02    0.000000e+00    1.020504e+02   -3.559342e+00    6.532344e+00    3.033721e+02    0.000000e+00
   9.897762e-02    9.508156e+01    4.613881e-01    9.462016e+01    0.000000e+00    9.770449e+01   -3.484803e+00    6.521382e+00    2.939055e+02    0.000000e+00
   1.024314e-01    8.915880e+01    4.530948e-01    8.870570e+01    0.000000e+00    9.359207e+01   -3.412693e+00    6.483827e+00    2.848944e+02    0.000000e+00
   1.059445e-01    8.366592e+01    4.446723e-01    8.322124e+01    0.000000e+00    8.969743e+01   -3.342891e+00    6.445293e+00    2.762909e+02    0.000000e+00
   1.095167e-01    7.856662e+01    4.360895e-01    7.813052e+01    0.000000e+00    8.600623e+01   -3.275288e+00    6.405620e+00    2.680665e+02    0.000000e+00
   1.131482e-01    7.382811e+01    4.273786e-01    7.340072e+01    0.000000e+00    8.250522e+01   -3.209782e+00    6.364924e+00    2.601956e+02    0.000000e+00
   1.168389e-01    6.942072e+01    4.186069e-01    6.900210e+01    0.000000e+00    7.918223e+01   -3.146276e+00    6.323488e+00    2.526761e+02    0.000000e+00
   1.205889e-01    6.531757e+01    4.098722e-01    6.490768e+01    0.000000e+00    7.602603e+01   -3.084678e+00    6.281743e+00    2.455091e+02    0.000000e+00
   1.243981e-01    6.149425e+01    4.012745e-01    6.109297e+01    0.000000e+00    7.302625e+01   -3.024904e+00    6.240150e+00    2.386263e+02    0.000000e+00
   1.282665e-01    5.792876e+01    3.929548e-01    5.753580e+01    0.000000e+00    7.017331e+01   -2.966873e+00    6.199388e+00    2.320097e+02    0.000000e+00
   1.321942e-01    5.460091e+01    3.850035e-01    5.421590e+01    0.000000e+00    6.745832e+01   -2.910511e+00    6.159922e+00    2.256852e+02    0.000000e+00
   1.361810e-01    5.149244e+01    3.775334e-01    5.111490e+01    0.000000e+00    6.487307e+01   -2.855745e+00    6.122346e+00    2.196130e+02    0.000000e+00
   1.402271e-01    4.858669e+01    3.706382e-01    4.821604e+01    0.000000e+00    6.240992e+01   -2.802510e+00    6.087183e+00    2.137578e+02    0.000000e+00
   1.443325e-01    4.586841e+01    3.643934e-01    4.550401e+01    0.000000e+00    6.006178e+01   -2.750742e+00    6.054928e+00    2.081486e+02    0.000000e+00
   1.484971e-01    4.332370e+01    3.588560e-01    4.296483e+01    0.000000e+00    5.782207e+01   -2.700382e+00    6.025918e+00    2.027451e+02    0.000000e+00
   1.527209e-01    4.093978e+01    3.530588e-01    4.058671e+01    0.000000e+00    5.568465e+01   -2.651373e+00    5.995290e+00    1.975299e+02    0.000000e+00
   1.570039e-01    3.870501e+01    3.455207e-01    3.835948e+01    0.000000e+00    5.364381e+01   -2.603661e+00    5.955370e+00    1.925259e+02    0.000000e+00
   1.613462e-01    3.660872e+01    3.389545e-01    3.626976e+01    0.000000e+00    5.169422e+01   -2.557197e+00    5.920011e+00    1.876785e+02    0.000000e+00
   1.657477e-01    3.464107e+01    3.333667e-01    3.430769e+01    0.000000e+00    4.983090e+01   -2.511932e+00    5.889402e+00    1.830242e+02    0.000000e+00
   1.702084e-01    3.279301e+01    3.287579e-01    3.246424e+01    0.000000e+00    4.804921e+01   -2.467821e+00    5.863671e+00    1.785121e+02    0.000000e+00
   1.747283e-01    3.105627e+01    3.226835e-01    3.073358e+01    0.000000e+00    4.634479e+01   -2.424820e+00    5.829851e+00    1.741698e+02    0.000000e+00
   1.793075e-01    2.942321e+01    3.164887e-01    2.910671e+01    0.000000e+00    4.471360e+01   -2.382890e+00    5.794985e+00    1.699565e+02    0.000000e+00
   1.839460e-01    2.788675e+01    3.114580e-01    2.757529e+01    0.000000e+00    4.315180e+01   -2.341990e+00    5.766081e+00    1.658992e+02    0.000000e+00
   1.886436e-01    2.644042e+01    3.075484e-01    2.613287e+01    0.000000e+00    4.165584e+01   -2.302085e+00    5.743101e+00    1.619592e+02    0.000000e+00
   1.934005e-01    2.507821e+01    3.012999e-01    2.477690e+01    0.000000e+00    4.022235e+01   -2.263138e+00    5.706832e+00    1.581556e+02    0.000000e+00
   1.982166e-01    2.379455e+01    2.961948e-01    2.349834e+01    0.000000e+00    3.884820e+01   -2.225116e+00    5.676589e+00    1.544667e+02    0.000000e+00
   2.030919e-01    2.258430e+01    2.922955e-01    2.229199e+01    0.000000e+00    3.753042e+01   -2.187987e+00    5.652915e+00    1.508888e+02    0.000000e+00
   2.080265e-01    2.144274e+01    2.870286e-01    2.115571e+01    0.000000e+00    3.626623e+01   -2.151721e+00    5.621123e+00    1.474285e+02    0.000000e+00
   2.130203e-01    2.036543e+01    2.821915e-01    2.008323e+01    0.000000e+00    3.505303e+01   -2.116288e+00    5.591465e+00    1.440660e+02    0.000000e+00
   2.180734e-01    1.934832e+01    2.785966e-01    1.906972e+01    0.000000e+00    3.388833e+01   -2.081661e+00    5.568798e+00    1.408021e+02    0.000000e+00
   2.231856e-01    1.838759e+01    2.735453e-01    1.811404e+01    0.000000e+00    3.276982e+01   -2.047813e+00    5.537267e+00    1.376399e+02    0.000000e+00
   2.283571e-01    1.747972e+01    2.692502e-01    1.721047e+01    0.000000e+00    3.169532e+01   -2.014718e+00    5.509906e+00    1.345653e+02    0.000000e+00
   2.335879e-01    1.662145e+01    2.657908e-01    1.635565e+01    0.000000e+00    3.066275e+01   -1.982353e+00    5.487322e+00    1.315756e+02    0.000000e+00
   2.388778e-01    1.580974e+01    2.609536e-01    1.554878e+01    0.000000e+00    2.967016e+01   -1.950694e+00    5.456094e+00    1.286721e+02    0.000000e+00
   2.442270e-01    1.504174e+01    2.573723e-01    1.478436e+01    0.000000e+00    2.871571e+01   -1.919719e+00    5.432265e+00    1.258512e+02    0.000000e+00
   2.496354e-01    1.431481e+01    2.533464e-01    1.406145e+01    0.000000e+00    2.779766e+01   -1.889406e+00    5.405425e+00    1.231057e+02    0.000000e+00
   2.551031e-01    1.362649e+01    2.493986e-01    1.337709e+01    0.000000e+00    2.691435e+01   -1.859735e+00    5.378786e+00    1.204334e+02    0.000000e+00
   2.606300e-01    1.297450e+01    2.461979e-01    1.272830e+01    0.000000e+00    2.606424e+01   -1.830686e+00    5.356620e+00    1.178316e+02    0.000000e+00
   2.662161e-01    1.235670e+01    2.420086e-01    1.211468e+01    0.000000e+00    2.524583e+01   -1.802241e+00    5.327887e+00    1.152982e+02    0.000000e+00
   2.718614e-01    1.177107e+01    2.389786e-01    1.153208e+01    0.000000e+00    2.445774e+01   -1.774382e+00    5.306355e+00    1.128326e+02    0.000000e+00
   2.775660e-01    1.121575e+01    2.350458e-01    1.098069e+01    0.000000e+00    2.369863e+01   -1.747090e+00    5.278701e+00    1.104308e+02    0.000000e+00
   2.833298e-01    1.068899e+01    2.318689e-01    1.045711e+01    0.000000e+00    2.296725e+01   -1.720350e+00    5.255742e+00    1.080896e+02    0.000000e+00
   2.891528e-01    1.018917e+01    2.284146e-01    9.960746e+00    0.000000e+00    2.226241e+01   -1.694145e+00    5.230701e+00    1.058071e+02    0.000000e+00
   2.950351e-01    9.714736e+00    2.251717e-01    9.489558e+00    0.000000e+00    2.158296e+01   -1.668459e+00    5.206825e+00    1.035813e+02    0.000000e+00
   3.009766e-01    9.264286e+00    2.220548e-01    9.042225e+00    0.000000e+00    2.092784e+01   -1.643280e+00    5.183559e+00    1.014102e+02    0.000000e+00
   3.069773e-01    8.836449e+00    2.188151e-01    8.617628e+00    0.000000e+00    2.029601e+01   -1.618590e+00    5.159213e+00    9.929199e+01    0.000000e+00
   3.130373e-01    8.429991e+00    2.159332e-01    8.214052e+00    0.000000e+00    1.968651e+01   -1.594378e+00    5.137090e+00    9.722486e+01    0.000000e+00
   3.191565e-01    8.043714e+00    2.127517e-01    7.830956e+00    0.000000e+00    1.909841e+01   -1.570629e+00    5.112651e+00    9.520706e+01    0.000000e+00
   3.253349e-01    7.676515e+00    2.100305e-01    7.466479e+00    0.000000e+00    1.853083e+01   -1.547331e+00    5.091205e+00    9.323696e+01    0.000000e+00
   3.315726e-01    7.327361e+00    2.069491e-01    7.120406e+00    0.000000e+00    1.798294e+01   -1.524472e+00    5.066975e+00    9.131294e+01    0.000000e+00
   3.378694e-01    6.995266e+00    2.043398e-01    6.790920e+00    0.000000e+00    1.745392e+01   -1.502039e+00    5.045896e+00    8.943348e+01    0.000000e+00
   3.442256e-01    6.679313e+00    2.013864e-01    6.477921e+00    0.000000e+00    1.694303e+01   -1.480021e+00    5.022116e+00    8.759868e+01    0.000000e+00
   3.506409e-01    6.378643e+00    1.988536e-01    6.179784e+00    0.000000e+00    1.644953e+01   -1.458408e+00    5.001168e+00    8.580572e+01    0.000000e+00
   3.571155e-01    6.092445e+00    1.960515e-01    5.896388e+00    0.000000e+00    1.597274e+01   -1.437188e+00    4.978017e+00    8.405318e+01    0.000000e+00
   3.636493e-01    5.819951e+00    1.935724e-01    5.626374e+00    0.000000e+00    1.551199e+01   -1.416351e+00    4.957040e+00    8.233975e+01    0.000000e+00
   3.702423e-01    5.560443e+00    1.909324e-01    5.369505e+00    0.000000e+00    1.506666e+01   -1.395887e+00    4.934653e+00    8.066419e+01    0.000000e+00
   3.768946e-01    5.313243e+00    1.884917e-01    5.124746e+00    0.000000e+00    1.463614e+01   -1.375787e+00    4.913550e+00    7.902577e+01    0.000000e+00
   3.836061e-01    5.077712e+00    1.860194e-01    4.891688e+00    0.000000e+00    1.421987e+01   -1.356040e+00    4.891992e+00    7.742475e+01    0.000000e+00
   3.903768e-01    4.853251e+00    1.836091e-01    4.669637e+00    0.000000e+00    1.381728e+01   -1.336639e+00    4.870706e+00    7.585816e+01    0.000000e+00
   3.972068e-01    4.639291e+00    1.813044e-01    4.457981e+00    0.000000e+00    1.342786e+01   -1.317575e+00    4.850033e+00    7.432493e+01    0.000000e+00
   4.040960e-01    4.435297e+00    1.789205e-01    4.256371e+00    0.000000e+00    1.305111e+01   -1.298838e+00    4.828528e+00    7.282528e+01    0.000000e+00
   4.110444e-01    4.240764e+00    1.767785e-01    4.063981e+00    0.000000e+00    1.268655e+01   -1.280422e+00    4.808744e+00    7.135838e+01    0.000000e+00
   4.180521e-01    4.055216e+00    1.744201e-01    3.880791e+00    0.000000e+00    1.233371e+01   -1.262317e+00    4.787022e+00    6.992191e+01    0.000000e+00
   4.251189e-01    3.878202e+00    1.724325e-01    3.705764e+00    0.000000e+00    1.199217e+01   -1.244517e+00    4.768100e+00    6.851627e+01    0.000000e+00
   4.322451e-01    3.709297e+00    1.701007e-01    3.539191e+00    0.000000e+00    1.166149e+01   -1.227014e+00    4.746175e+00    6.714071e+01    0.000000e+00
   4.394304e-01    3.548099e+00    1.681462e-01    3.379948e+00    0.000000e+00    1.134129e+01   -1.209801e+00    4.727153e+00    6.579296e+01    0.000000e+00
   4.466750e-01    3.394229e+00    1.659539e-01    3.228270e+00    0.000000e+00    1.103116e+01   -1.192871e+00    4.705963e+00    6.447474e+01    0.000000e+00
   4.539788e-01    3.247327e+00    1.639965e-01    3.083326e+00    0.000000e+00    1.073075e+01   -1.176218e+00    4.686544e+00    6.318299e+01    0.000000e+00
   4.613418e-01    3.107057e+00    1.619715e-01    2.945081e+00    0.000000e+00    1.043970e+01   -1.159835e+00    4.666365e+00    6.191847e+01    0.000000e+00
   4.687641e-01    2.973093e+00    1.600188e-01    2.813070e+00    0.000000e+00    1.015767e+01   -1.143715e+00    4.646607e+00    6.067974e+01    0.000000e+00
   4.762456e-01    2.845133e+00    1.581435e-01    2.686985e+00    0.000000e+00    9.884337e+00   -1.127854e+00    4.627334e+00    5.946659e+01    0.000000e+00
