# All units in Hartree [AU] if not specified
# Convergence: Err(φ)=-inf, Err(n_e)=9.968e-09, Err(IET)=9.888e-13, Q_net=9.095e-13
# {"name":"Al", "Z":13, "Zstar":4.045012083340824, "A":26.981539,  "μ[AU]": 5.2077427904e-01, "Te[AU]": 3.675e-02, "Ti[AU]": 3.675e-02, "rs[AU]": 2.990e+00 }
   r[AU]           n[AU]           nf[AU]          nb[AU]          n_ion[AU]       φtot[AU]        δVxc/δρ[Au]     U_ei[AU]        U_ii[AU]        g_ii            
   1.000000e-03    1.413596e+05    8.535591e+00    1.413510e+05    0.000000e+00    1.294688e+04   -3.865974e+01    2.139380e+01    7.312943e+03  -3.638549e-124
   1.010369e-03    1.391835e+05    8.556587e+00    1.391749e+05    0.000000e+00    1.281346e+04   -3.846115e+01    2.142518e+01    7.303454e+03  -3.607355e-124
   1.020846e-03    1.370408e+05    8.523837e+00    1.370323e+05    0.000000e+00    1.268141e+04   -3.826356e+01    2.137620e+01    7.293867e+03  -3.575988e-124
   1.031432e-03    1.349309e+05    8.439898e+00    1.349225e+05    0.000000e+00    1.255072e+04   -3.806698e+01    2.124977e+01    7.284180e+03  -3.544447e-124
   1.042127e-03    1.328535e+05    8.368806e+00    1.328451e+05    0.000000e+00    1.242136e+04   -3.787140e+01    2.114170e+01    7.274393e+03  -3.512736e-124
   1.052933e-03    1.308081e+05    8.381173e+00    1.307997e+05    0.000000e+00    1.229334e+04   -3.767684e+01    2.116056e+01    7.264505e+03  -3.480854e-124
   1.063851e-03    1.287940e+05    8.343411e+00    1.287857e+05    0.000000e+00    1.216663e+04   -3.748327e+01    2.110365e+01    7.254514e+03  -3.448803e-124
   1.074883e-03    1.268109e+05    8.257944e+00    1.268026e+05    0.000000e+00    1.204122e+04   -3.729068e+01    2.097488e+01    7.244419e+03  -3.416584e-124
   1.086029e-03    1.248582e+05    8.203260e+00    1.248500e+05    0.000000e+00    1.191710e+04   -3.709909e+01    2.089179e+01    7.234220e+03  -3.384199e-124
   1.097290e-03    1.229356e+05    8.208348e+00    1.229274e+05    0.000000e+00    1.179425e+04   -3.690848e+01    2.089954e+01    7.223914e+03  -3.351649e-124
   1.108668e-03    1.210425e+05    8.166640e+00    1.210343e+05    0.000000e+00    1.167266e+04   -3.671884e+01    2.083582e+01    7.213502e+03  -3.318935e-124
   1.120165e-03    1.191784e+05    8.080519e+00    1.191704e+05    0.000000e+00    1.155232e+04   -3.653017e+01    2.070421e+01    7.202982e+03  -3.286058e-124
   1.131780e-03    1.173430e+05    8.039601e+00    1.173350e+05    0.000000e+00    1.143322e+04   -3.634246e+01    2.064206e+01    7.192353e+03  -3.253021e-124
   1.143516e-03    1.155359e+05    8.038565e+00    1.155279e+05    0.000000e+00    1.131534e+04   -3.615573e+01    2.064048e+01    7.181614e+03  -3.219825e-124
   1.155373e-03    1.137565e+05    7.993894e+00    1.137485e+05    0.000000e+00    1.119867e+04   -3.596994e+01    2.057225e+01    7.170764e+03  -3.186472e-124
   1.167354e-03    1.120043e+05    7.907669e+00    1.119964e+05    0.000000e+00    1.108319e+04   -3.578510e+01    2.043944e+01    7.159800e+03  -3.152963e-124
   1.179459e-03    1.102792e+05    7.878044e+00    1.102713e+05    0.000000e+00    1.096891e+04   -3.560121e+01    2.039347e+01    7.148724e+03  -3.119301e-124
   1.191689e-03    1.085806e+05    7.871718e+00    1.085727e+05    0.000000e+00    1.085579e+04   -3.541827e+01    2.038363e+01    7.137532e+03  -3.085487e-124
   1.204046e-03    1.069080e+05    7.824884e+00    1.069002e+05    0.000000e+00    1.074384e+04   -3.523626e+01    2.031180e+01    7.126224e+03  -3.051524e-124
   1.216531e-03    1.052611e+05    7.739263e+00    1.052533e+05    0.000000e+00    1.063303e+04   -3.505517e+01    2.017991e+01    7.114799e+03  -3.017413e-124
   1.229146e-03    1.036395e+05    7.718528e+00    1.036318e+05    0.000000e+00    1.052336e+04   -3.487502e+01    2.014775e+01    7.103256e+03  -2.983156e-124
   1.241891e-03    1.020429e+05    7.708097e+00    1.020352e+05    0.000000e+00    1.041482e+04   -3.469579e+01    2.013154e+01    7.091593e+03  -2.948757e-124
   1.254769e-03    1.004708e+05    7.659571e+00    1.004631e+05    0.000000e+00    1.030739e+04   -3.451748e+01    2.005581e+01    7.079808e+03  -2.914217e-124
   1.267780e-03    9.892280e+04    7.575101e+00    9.891523e+04    0.000000e+00    1.020107e+04   -3.434007e+01    1.992442e+01    7.067902e+03  -2.879539e-124
   1.280926e-03    9.739866e+04    7.561348e+00    9.739110e+04    0.000000e+00    1.009584e+04   -3.416358e+01    1.990309e+01    7.055872e+03  -2.844725e-124
   1.294208e-03    9.589794e+04    7.547479e+00    9.589039e+04    0.000000e+00    9.991683e+03   -3.398799e+01    1.988154e+01    7.043718e+03  -2.809778e-124
   1.307628e-03    9.442024e+04    7.498215e+00    9.441274e+04    0.000000e+00    9.888599e+03   -3.381329e+01    1.980468e+01    7.031437e+03  -2.774701e-124
   1.321188e-03    9.296522e+04    7.415477e+00    9.295780e+04    0.000000e+00    9.786573e+03   -3.363949e+01    1.967444e+01    7.019030e+03  -2.739497e-124
   1.334888e-03    9.153262e+04    7.406646e+00    9.152522e+04    0.000000e+00    9.685594e+03   -3.346658e+01    1.966045e+01    7.006493e+03  -2.704167e-124
   1.348729e-03    9.012204e+04    7.390219e+00    9.011465e+04    0.000000e+00    9.585652e+03   -3.329455e+01    1.963439e+01    6.993826e+03  -2.668716e-124
   1.362715e-03    8.873310e+04    7.340757e+00    8.872575e+04    0.000000e+00    9.486736e+03   -3.312341e+01    1.955716e+01    6.981029e+03  -2.633147e-124
   1.376845e-03    8.736547e+04    7.259761e+00    8.735821e+04    0.000000e+00    9.388835e+03   -3.295313e+01    1.942967e+01    6.968098e+03  -2.597462e-124
   1.391122e-03    8.601893e+04    7.254504e+00    8.601167e+04    0.000000e+00    9.291940e+03   -3.278373e+01    1.942135e+01    6.955033e+03  -2.561665e-124
   1.405547e-03    8.469307e+04    7.236093e+00    8.468583e+04    0.000000e+00    9.196038e+03   -3.261520e+01    1.939215e+01    6.941833e+03  -2.525759e-124
   1.420122e-03    8.338756e+04    7.186857e+00    8.338037e+04    0.000000e+00    9.101122e+03   -3.244752e+01    1.931368e+01    6.928496e+03  -2.489748e-124
   1.434848e-03    8.210208e+04    7.108314e+00    8.209497e+04    0.000000e+00    9.007179e+03   -3.228070e+01    1.918922e+01    6.915021e+03  -2.453636e-124
   1.449726e-03    8.083643e+04    7.104873e+00    8.082933e+04    0.000000e+00    8.914201e+03   -3.211474e+01    1.918378e+01    6.901406e+03  -2.417426e-124
   1.464759e-03    7.959022e+04    7.085053e+00    7.958313e+04    0.000000e+00    8.822178e+03   -3.194963e+01    1.915235e+01    6.887650e+03  -2.381122e-124
   1.479948e-03    7.836313e+04    7.036546e+00    7.835609e+04    0.000000e+00    8.731099e+03   -3.178536e+01    1.907506e+01    6.873751e+03  -2.344728e-124
   1.495294e-03    7.715487e+04    6.960648e+00    7.714791e+04    0.000000e+00    8.640955e+03   -3.162192e+01    1.895304e+01    6.859708e+03  -2.308248e-124
   1.510799e-03    7.596525e+04    6.958058e+00    7.595830e+04    0.000000e+00    8.551736e+03   -3.145933e+01    1.894886e+01    6.845519e+03  -2.271686e-124
   1.526465e-03    7.479390e+04    6.937404e+00    7.478697e+04    0.000000e+00    8.463434e+03   -3.129757e+01    1.891558e+01    6.831184e+03  -2.235047e-124
   1.542293e-03    7.364053e+04    6.889744e+00    7.363364e+04    0.000000e+00    8.376037e+03   -3.113663e+01    1.883966e+01    6.816699e+03  -2.198334e-124
   1.558286e-03    7.250486e+04    6.816731e+00    7.249804e+04    0.000000e+00    8.289538e+03   -3.097651e+01    1.872232e+01    6.802065e+03  -2.161553e-124
   1.574444e-03    7.138672e+04    6.813971e+00    7.137990e+04    0.000000e+00    8.203927e+03   -3.081722e+01    1.871786e+01    6.787278e+03  -2.124708e-124
   1.590770e-03    7.028574e+04    6.792710e+00    7.027895e+04    0.000000e+00    8.119195e+03   -3.065874e+01    1.868344e+01    6.772339e+03  -2.087803e-124
   1.607266e-03    6.920166e+04    6.746388e+00    6.919491e+04    0.000000e+00    8.035333e+03   -3.050106e+01    1.860806e+01    6.757244e+03  -2.050844e-124
   1.623932e-03    6.813422e+04    6.676417e+00    6.812754e+04    0.000000e+00    7.952331e+03   -3.034419e+01    1.849508e+01    6.741993e+03  -2.013837e-124
   1.640771e-03    6.708325e+04    6.672472e+00    6.707658e+04    0.000000e+00    7.870182e+03   -3.018813e+01    1.848871e+01    6.726584e+03  -1.976784e-124
   1.657785e-03    6.604842e+04    6.651117e+00    6.604177e+04    0.000000e+00    7.788876e+03   -3.003286e+01    1.845414e+01    6.711015e+03  -1.939694e-124
   1.674975e-03    6.502948e+04    6.606403e+00    6.502287e+04    0.000000e+00    7.708404e+03   -2.987838e+01    1.838140e+01    6.695284e+03  -1.902569e-124
   1.692343e-03    6.402618e+04    6.539473e+00    6.401964e+04    0.000000e+00    7.628759e+03   -2.972469e+01    1.827159e+01    6.679391e+03  -1.865417e-124
   1.709892e-03    6.303836e+04    6.533632e+00    6.303182e+04    0.000000e+00    7.549931e+03   -2.957179e+01    1.826195e+01    6.663333e+03  -1.828242e-124
   1.727622e-03    6.206571e+04    6.512558e+00    6.205919e+04    0.000000e+00    7.471913e+03   -2.941968e+01    1.822750e+01    6.647108e+03  -1.791052e-124
   1.745537e-03    6.110799e+04    6.469588e+00    6.110152e+04    0.000000e+00    7.394696e+03   -2.926833e+01    1.815762e+01    6.630715e+03  -1.753850e-124
   1.763637e-03    6.016497e+04    6.406007e+00    6.015857e+04    0.000000e+00    7.318271e+03   -2.911776e+01    1.805336e+01    6.614151e+03  -1.716645e-124
   1.781925e-03    5.923651e+04    6.397394e+00    5.923011e+04    0.000000e+00    7.242631e+03   -2.896796e+01    1.803916e+01    6.597417e+03  -1.679441e-124
   1.800402e-03    5.832231e+04    6.376852e+00    5.831593e+04    0.000000e+00    7.167767e+03   -2.881892e+01    1.800520e+01    6.580508e+03  -1.642246e-124
   1.819071e-03    5.742214e+04    6.335910e+00    5.741580e+04    0.000000e+00    7.093672e+03   -2.867065e+01    1.793719e+01    6.563424e+03  -1.605065e-124
   1.837934e-03    5.653579e+04    6.275608e+00    5.652952e+04    0.000000e+00    7.020338e+03   -2.852312e+01    1.783794e+01    6.546164e+03  -1.567906e-124
   1.856992e-03    5.566312e+04    6.263682e+00    5.565686e+04    0.000000e+00    6.947756e+03   -2.837636e+01    1.781828e+01    6.528724e+03  -1.530776e-124
   1.876248e-03    5.480386e+04    6.243957e+00    5.479761e+04    0.000000e+00    6.875920e+03   -2.823034e+01    1.778568e+01    6.511103e+03  -1.493681e-124
   1.895703e-03    5.395779e+04    6.205121e+00    5.395158e+04    0.000000e+00    6.804821e+03   -2.808507e+01    1.772120e+01    6.493300e+03  -1.456628e-124
   1.915360e-03    5.312471e+04    6.148138e+00    5.311856e+04    0.000000e+00    6.734453e+03   -2.794054e+01    1.762584e+01    6.475312e+03  -1.419625e-124
   1.935221e-03    5.230448e+04    6.132626e+00    5.229835e+04    0.000000e+00    6.664806e+03   -2.779675e+01    1.759972e+01    6.457137e+03  -1.382679e-124
   1.955288e-03    5.149686e+04    6.113748e+00    5.149075e+04    0.000000e+00    6.595875e+03   -2.765369e+01    1.756844e+01    6.438774e+03  -1.345797e-124
   1.975564e-03    5.070165e+04    6.077159e+00    5.069557e+04    0.000000e+00    6.527651e+03   -2.751136e+01    1.750771e+01    6.420221e+03  -1.308989e-124
   1.996049e-03    4.991864e+04    6.023659e+00    4.991262e+04    0.000000e+00    6.460128e+03   -2.736976e+01    1.741824e+01    6.401475e+03  -1.272260e-124
   2.016747e-03    4.914771e+04    6.003935e+00    4.914170e+04    0.000000e+00    6.393298e+03   -2.722888e+01    1.738505e+01    6.382535e+03  -1.235620e-124
   2.037659e-03    4.838863e+04    5.986183e+00    4.838264e+04    0.000000e+00    6.327154e+03   -2.708872e+01    1.735509e+01    6.363398e+03  -1.199077e-124
   2.058788e-03    4.764121e+04    5.951895e+00    4.763526e+04    0.000000e+00    6.261690e+03   -2.694927e+01    1.729696e+01    6.344063e+03  -1.162638e-124
   2.080137e-03    4.690527e+04    5.901806e+00    4.689937e+04    0.000000e+00    6.196897e+03   -2.681054e+01    1.721290e+01    6.324528e+03  -1.126313e-124
   2.101706e-03    4.618067e+04    5.877649e+00    4.617480e+04    0.000000e+00    6.132770e+03   -2.667251e+01    1.717228e+01    6.304790e+03  -1.090111e-124
   2.123500e-03    4.546723e+04    5.861157e+00    4.546137e+04    0.000000e+00    6.069301e+03   -2.653519e+01    1.714444e+01    6.284847e+03  -1.054039e-124
   2.145519e-03    4.476474e+04    5.829168e+00    4.475891e+04    0.000000e+00    6.006483e+03   -2.639857e+01    1.709023e+01    6.264697e+03  -1.018108e-124
   2.167767e-03    4.407304e+04    5.782509e+00    4.406726e+04    0.000000e+00    5.944311e+03   -2.626264e+01    1.701061e+01    6.244339e+03  -9.823255e-125
   2.190245e-03    4.339200e+04    5.753651e+00    4.338624e+04    0.000000e+00    5.882777e+03   -2.612740e+01    1.696128e+01    6.223769e+03  -9.467019e-125
   2.212956e-03    4.272144e+04    5.738555e+00    4.271570e+04    0.000000e+00    5.821875e+03   -2.599286e+01    1.693581e+01    6.202986e+03  -9.112463e-125
   2.235903e-03    4.206119e+04    5.708969e+00    4.205548e+04    0.000000e+00    5.761598e+03   -2.585901e+01    1.688569e+01    6.181988e+03  -8.759685e-125
   2.259088e-03    4.141107e+04    5.665622e+00    4.140541e+04    0.000000e+00    5.701940e+03   -2.572583e+01    1.681177e+01    6.160772e+03  -8.408782e-125
   2.282513e-03    4.077097e+04    5.631878e+00    4.076534e+04    0.000000e+00    5.642894e+03   -2.559333e+01    1.675384e+01    6.139336e+03  -8.059855e-125
   2.306182e-03    4.014073e+04    5.618239e+00    4.013512e+04    0.000000e+00    5.584455e+03   -2.546152e+01    1.673032e+01    6.117678e+03  -7.713005e-125
   2.330095e-03    3.952018e+04    5.591051e+00    3.951459e+04    0.000000e+00    5.526616e+03   -2.533037e+01    1.668327e+01    6.095795e+03  -7.368334e-125
   2.354257e-03    3.890915e+04    5.550965e+00    3.890360e+04    0.000000e+00    5.469371e+03   -2.519988e+01    1.661469e+01    6.073685e+03  -7.025948e-125
   2.378669e-03    3.830753e+04    5.512238e+00    3.830202e+04    0.000000e+00    5.412713e+03   -2.507007e+01    1.654823e+01    6.051346e+03  -6.685954e-125
   2.403334e-03    3.771519e+04    5.500120e+00    3.770969e+04    0.000000e+00    5.356638e+03   -2.494092e+01    1.652733e+01    6.028775e+03  -6.348457e-125
   2.428255e-03    3.713195e+04    5.475307e+00    3.712648e+04    0.000000e+00    5.301138e+03   -2.481242e+01    1.648440e+01    6.005970e+03  -6.013569e-125
   2.453435e-03    3.655767e+04    5.438535e+00    3.655223e+04    0.000000e+00    5.246208e+03   -2.468458e+01    1.642042e+01    5.982929e+03  -5.681399e-125
   2.478875e-03    3.599222e+04    5.394660e+00    3.598683e+04    0.000000e+00    5.191842e+03   -2.455738e+01    1.634418e+01    5.959648e+03  -5.352061e-125
   2.504580e-03    3.543550e+04    5.384099e+00    3.543012e+04    0.000000e+00    5.138034e+03   -2.443084e+01    1.632596e+01    5.936127e+03  -5.025669e-125
   2.530551e-03    3.488734e+04    5.361700e+00    3.488198e+04    0.000000e+00    5.084779e+03   -2.430495e+01    1.628722e+01    5.912361e+03  -4.702337e-125
   2.556791e-03    3.434760e+04    5.328068e+00    3.434227e+04    0.000000e+00    5.032071e+03   -2.417969e+01    1.622874e+01    5.888349e+03  -4.382183e-125
   2.583303e-03    3.381615e+04    5.283785e+00    3.381087e+04    0.000000e+00    4.979903e+03   -2.405507e+01    1.615116e+01    5.864088e+03  -4.065324e-125
   2.610090e-03    3.329291e+04    5.270034e+00    3.328764e+04    0.000000e+00    4.928272e+03   -2.393109e+01    1.612693e+01    5.839576e+03  -3.751882e-125
   2.637155e-03    3.277772e+04    5.250029e+00    3.277247e+04    0.000000e+00    4.877171e+03   -2.380774e+01    1.609158e+01    5.814809e+03  -3.441977e-125
   2.664501e-03    3.227044e+04    5.219482e+00    3.226522e+04    0.000000e+00    4.826594e+03   -2.368501e+01    1.603837e+01    5.789786e+03  -3.135731e-125
   2.692130e-03    3.177096e+04    5.178975e+00    3.176578e+04    0.000000e+00    4.776537e+03   -2.356291e+01    1.596748e+01    5.764503e+03  -2.833269e-125
   2.720046e-03    3.127919e+04    5.157926e+00    3.127403e+04    0.000000e+00    4.726994e+03   -2.344143e+01    1.593042e+01    5.738957e+03  -2.534715e-125
   2.748251e-03    3.079499e+04    5.140206e+00    3.078985e+04    0.000000e+00    4.677960e+03   -2.332057e+01    1.589911e+01    5.713147e+03  -2.240197e-125
   2.776748e-03    3.031823e+04    5.112654e+00    3.031311e+04    0.000000e+00    4.629429e+03   -2.320032e+01    1.585020e+01    5.687070e+03  -1.949840e-125
   2.805541e-03    2.984879e+04    5.075788e+00    2.984372e+04    0.000000e+00    4.581397e+03   -2.308069e+01    1.578473e+01    5.660721e+03  -1.663774e-125
   2.834633e-03    2.938660e+04    5.047583e+00    2.938155e+04    0.000000e+00    4.533857e+03   -2.296166e+01    1.573510e+01    5.634100e+03  -1.382130e-125
   2.864026e-03    2.893152e+04    5.032097e+00    2.892649e+04    0.000000e+00    4.486807e+03   -2.284325e+01    1.570773e+01    5.607203e+03  -1.105036e-125
   2.893725e-03    2.848345e+04    5.007471e+00    2.847844e+04    0.000000e+00    4.440239e+03   -2.272543e+01    1.566403e+01    5.580027e+03  -8.326257e-126
   2.923731e-03    2.804226e+04    4.974102e+00    2.803729e+04    0.000000e+00    4.394149e+03   -2.260821e+01    1.560447e+01    5.552568e+03  -5.650309e-126
   2.954048e-03    2.760786e+04    4.938922e+00    2.760293e+04    0.000000e+00    4.348533e+03   -2.249159e+01    1.554123e+01    5.524826e+03  -3.023851e-126
   2.984679e-03    2.718018e+04    4.925645e+00    2.717525e+04    0.000000e+00    4.303385e+03   -2.237556e+01    1.551742e+01    5.496795e+03  -4.482242e-127
   3.015629e-03    2.675906e+04    4.903819e+00    2.675416e+04    0.000000e+00    4.258701e+03   -2.226012e+01    1.547870e+01    5.468474e+03   2.075223e-126
   3.046899e-03    2.634442e+04    4.873796e+00    2.633955e+04    0.000000e+00    4.214476e+03   -2.214527e+01    1.542515e+01    5.439859e+03   4.545139e-126
   3.078493e-03    2.593616e+04    4.836068e+00    2.593132e+04    0.000000e+00    4.170706e+03   -2.203100e+01    1.535739e+01    5.410948e+03   6.960163e-126
   3.110415e-03    2.553421e+04    4.820751e+00    2.552939e+04    0.000000e+00    4.127384e+03   -2.191732e+01    1.532972e+01    5.381737e+03   9.318935e-126
   3.142668e-03    2.513844e+04    4.801570e+00    2.513363e+04    0.000000e+00    4.084508e+03   -2.180421e+01    1.529494e+01    5.352222e+03   1.162009e-125
   3.175256e-03    2.474875e+04    4.774780e+00    2.474398e+04    0.000000e+00    4.042072e+03   -2.169168e+01    1.524631e+01    5.322402e+03   1.386226e-125
   3.208181e-03    2.436506e+04    4.740760e+00    2.436032e+04    0.000000e+00    4.000072e+03   -2.157971e+01    1.518528e+01    5.292273e+03   1.604407e-125
   3.241448e-03    2.398729e+04    4.717262e+00    2.398257e+04    0.000000e+00    3.958503e+03   -2.146832e+01    1.514286e+01    5.261831e+03   1.816417e-125
   3.275059e-03    2.361534e+04    4.700686e+00    2.361064e+04    0.000000e+00    3.917361e+03   -2.135749e+01    1.511281e+01    5.231073e+03   2.022119e-125
   3.309020e-03    2.324912e+04    4.676937e+00    2.324444e+04    0.000000e+00    3.876642e+03   -2.124723e+01    1.506957e+01    5.199997e+03   2.221376e-125
   3.343332e-03    2.288852e+04    4.646446e+00    2.288388e+04    0.000000e+00    3.836341e+03   -2.113752e+01    1.501372e+01    5.168598e+03   2.414053e-125
   3.378000e-03    2.253348e+04    4.615106e+00    2.252887e+04    0.000000e+00    3.796453e+03   -2.102838e+01    1.495663e+01    5.136874e+03   2.600014e-125
   3.413028e-03    2.218392e+04    4.600984e+00    2.217932e+04    0.000000e+00    3.756976e+03   -2.091979e+01    1.493102e+01    5.104820e+03   2.779126e-125
   3.448419e-03    2.183975e+04    4.580188e+00    2.183517e+04    0.000000e+00    3.717904e+03   -2.081175e+01    1.489316e+01    5.072435e+03   2.951255e-125
   3.484177e-03    2.150086e+04    4.553045e+00    2.149631e+04    0.000000e+00    3.679234e+03   -2.070425e+01    1.484349e+01    5.039713e+03   3.116269e-125
