# All units in Hartree [AU] if not specified
# Convergence: Err(φ)=-inf, Err(n_e)=3.900e-09, Err(IET)=9.940e-13, Q_net=-4.547e-13
# {"name":"Al", "Z":13, "Zstar":4.044051107340024, "A":26.981539,  "μ[AU]": 2.5272682569e-01, "Te[AU]": 3.675e-01, "Ti[AU]": 3.675e-01, "rs[AU]": 2.990e+00 }
   r[AU]           n[AU]           nf[AU]          nb[AU]          n_ion[AU]       φtot[AU]        δVxc/δρ[Au]     U_ei[AU]        U_ii[AU]        g_ii            
   1.000000e-03    1.413588e+05    4.203152e+00    1.413546e+05    0.000000e+00    1.294709e+04   -3.865967e+01    1.418216e+01    7.316186e+03    0.000000e+00
   1.010369e-03    1.391826e+05    4.139027e+00    1.391784e+05    0.000000e+00    1.281367e+04   -3.846106e+01    1.406145e+01    7.306701e+03    0.000000e+00
   1.020846e-03    1.370399e+05    4.180676e+00    1.370357e+05    0.000000e+00    1.268162e+04   -3.826348e+01    1.414006e+01    7.297118e+03    0.000000e+00
   1.031432e-03    1.349301e+05    4.169130e+00    1.349260e+05    0.000000e+00    1.255093e+04   -3.806690e+01    1.411835e+01    7.287436e+03    0.000000e+00
   1.042127e-03    1.328527e+05    4.107360e+00    1.328486e+05    0.000000e+00    1.242158e+04   -3.787133e+01    1.400113e+01    7.277653e+03    0.000000e+00
   1.052933e-03    1.308072e+05    4.061926e+00    1.308031e+05    0.000000e+00    1.229356e+04   -3.767676e+01    1.391514e+01    7.267769e+03    0.000000e+00
   1.063851e-03    1.287932e+05    4.094650e+00    1.287891e+05    0.000000e+00    1.216685e+04   -3.748319e+01    1.397681e+01    7.257783e+03    0.000000e+00
   1.074883e-03    1.268101e+05    4.077921e+00    1.268060e+05    0.000000e+00    1.204144e+04   -3.729061e+01    1.394535e+01    7.247692e+03    0.000000e+00
   1.086029e-03    1.248574e+05    4.014186e+00    1.248534e+05    0.000000e+00    1.191731e+04   -3.709901e+01    1.382426e+01    7.237498e+03    0.000000e+00
   1.097290e-03    1.229348e+05    3.984322e+00    1.229308e+05    0.000000e+00    1.179447e+04   -3.690839e+01    1.376685e+01    7.227197e+03    0.000000e+00
   1.108668e-03    1.210417e+05    4.009571e+00    1.210377e+05    0.000000e+00    1.167288e+04   -3.671876e+01    1.381542e+01    7.216790e+03    0.000000e+00
   1.120165e-03    1.191777e+05    3.988750e+00    1.191737e+05    0.000000e+00    1.155254e+04   -3.653009e+01    1.377539e+01    7.206275e+03    0.000000e+00
   1.131780e-03    1.173422e+05    3.924077e+00    1.173383e+05    0.000000e+00    1.143344e+04   -3.634238e+01    1.365161e+01    7.195650e+03    0.000000e+00
   1.143516e-03    1.155351e+05    3.906724e+00    1.155311e+05    0.000000e+00    1.131555e+04   -3.615564e+01    1.361826e+01    7.184916e+03    0.000000e+00
   1.155373e-03    1.137557e+05    3.925534e+00    1.137517e+05    0.000000e+00    1.119888e+04   -3.596986e+01    1.365441e+01    7.174070e+03    0.000000e+00
   1.167354e-03    1.120036e+05    3.901571e+00    1.119997e+05    0.000000e+00    1.108341e+04   -3.578502e+01    1.360833e+01    7.163112e+03    0.000000e+00
   1.179459e-03    1.102784e+05    3.836624e+00    1.102745e+05    0.000000e+00    1.096912e+04   -3.560113e+01    1.348247e+01    7.152040e+03    0.000000e+00
   1.191689e-03    1.085797e+05    3.829280e+00    1.085759e+05    0.000000e+00    1.085601e+04   -3.541818e+01    1.346836e+01    7.140853e+03    0.000000e+00
   1.204046e-03    1.069072e+05    3.843008e+00    1.069034e+05    0.000000e+00    1.074405e+04   -3.523617e+01    1.349472e+01    7.129551e+03    0.000000e+00
   1.216531e-03    1.052603e+05    3.816508e+00    1.052565e+05    0.000000e+00    1.063325e+04   -3.505509e+01    1.344375e+01    7.118131e+03    0.000000e+00
   1.229146e-03    1.036387e+05    3.751858e+00    1.036350e+05    0.000000e+00    1.052358e+04   -3.487493e+01    1.331788e+01    7.106592e+03    0.000000e+00
   1.241891e-03    1.020421e+05    3.752488e+00    1.020384e+05    0.000000e+00    1.041504e+04   -3.469570e+01    1.331911e+01    7.094934e+03    0.000000e+00
   1.254769e-03    1.004700e+05    3.761751e+00    1.004663e+05    0.000000e+00    1.030761e+04   -3.451739e+01    1.333728e+01    7.083156e+03    0.000000e+00
   1.267780e-03    9.892209e+04    3.733597e+00    9.891835e+04    0.000000e+00    1.020129e+04   -3.433999e+01    1.328192e+01    7.071255e+03    0.000000e+00
   1.280926e-03    9.739788e+04    3.669799e+00    9.739421e+04    0.000000e+00    1.009605e+04   -3.416349e+01    1.315750e+01    7.059230e+03    0.000000e+00
   1.294208e-03    9.589716e+04    3.676522e+00    9.589348e+04    0.000000e+00    9.991899e+03   -3.398790e+01    1.317071e+01    7.047081e+03    0.000000e+00
   1.307628e-03    9.441950e+04    3.682054e+00    9.441582e+04    0.000000e+00    9.888815e+03   -3.381320e+01    1.318155e+01    7.034806e+03    0.000000e+00
   1.321188e-03    9.296451e+04    3.652825e+00    9.296086e+04    0.000000e+00    9.786789e+03   -3.363940e+01    1.312406e+01    7.022404e+03    0.000000e+00
   1.334888e-03    9.153185e+04    3.590328e+00    9.152826e+04    0.000000e+00    9.685810e+03   -3.346648e+01    1.300070e+01    7.009873e+03    0.000000e+00
   1.348729e-03    9.012128e+04    3.601294e+00    9.011768e+04    0.000000e+00    9.585868e+03   -3.329446e+01    1.302223e+01    6.997212e+03    0.000000e+00
   1.362715e-03    8.873237e+04    3.604025e+00    8.872877e+04    0.000000e+00    9.486952e+03   -3.312332e+01    1.302758e+01    6.984420e+03    0.000000e+00
   1.376845e-03    8.736478e+04    3.574094e+00    8.736120e+04    0.000000e+00    9.389051e+03   -3.295304e+01    1.296870e+01    6.971495e+03    0.000000e+00
   1.391122e-03    8.601817e+04    3.513374e+00    8.601466e+04    0.000000e+00    9.292155e+03   -3.278363e+01    1.284770e+01    6.958436e+03    0.000000e+00
   1.405547e-03    8.469233e+04    3.527037e+00    8.468880e+04    0.000000e+00    9.196254e+03   -3.261510e+01    1.287511e+01    6.945242e+03    0.000000e+00
   1.420122e-03    8.338685e+04    3.527473e+00    8.338332e+04    0.000000e+00    9.101337e+03   -3.244743e+01    1.287598e+01    6.931911e+03    0.000000e+00
   1.434848e-03    8.210140e+04    3.497516e+00    8.209791e+04    0.000000e+00    9.007395e+03   -3.228061e+01    1.281612e+01    6.918442e+03    0.000000e+00
   1.449726e-03    8.083569e+04    3.438833e+00    8.083225e+04    0.000000e+00    8.914417e+03   -3.211465e+01    1.269916e+01    6.904833e+03    0.000000e+00
   1.464759e-03    7.958949e+04    3.453763e+00    7.958604e+04    0.000000e+00    8.822393e+03   -3.194953e+01    1.272911e+01    6.891083e+03    0.000000e+00
   1.479948e-03    7.836243e+04    3.452672e+00    7.835898e+04    0.000000e+00    8.731314e+03   -3.178527e+01    1.272692e+01    6.877190e+03    0.000000e+00
   1.495294e-03    7.715421e+04    3.423121e+00    7.715078e+04    0.000000e+00    8.641170e+03   -3.162183e+01    1.266750e+01    6.863153e+03    0.000000e+00
   1.510799e-03    7.596452e+04    3.366496e+00    7.596116e+04    0.000000e+00    8.551952e+03   -3.145923e+01    1.255359e+01    6.848971e+03    0.000000e+00
   1.526465e-03    7.479320e+04    3.381792e+00    7.478981e+04    0.000000e+00    8.463649e+03   -3.129747e+01    1.258426e+01    6.834642e+03    0.000000e+00
   1.542293e-03    7.363985e+04    3.379432e+00    7.363647e+04    0.000000e+00    8.376253e+03   -3.113653e+01    1.257954e+01    6.820164e+03    0.000000e+00
   1.558286e-03    7.250421e+04    3.350589e+00    7.250086e+04    0.000000e+00    8.289754e+03   -3.097642e+01    1.252154e+01    6.805536e+03    0.000000e+00
   1.574444e-03    7.138600e+04    3.296577e+00    7.138270e+04    0.000000e+00    8.204143e+03   -3.081711e+01    1.241154e+01    6.790756e+03    0.000000e+00
   1.590770e-03    7.028504e+04    3.310808e+00    7.028173e+04    0.000000e+00    8.119411e+03   -3.065864e+01    1.244070e+01    6.775823e+03    0.000000e+00
   1.607266e-03    6.920099e+04    3.307744e+00    6.919769e+04    0.000000e+00    8.035548e+03   -3.050096e+01    1.243444e+01    6.760736e+03    0.000000e+00
   1.623932e-03    6.813358e+04    3.279934e+00    6.813030e+04    0.000000e+00    7.952547e+03   -3.034409e+01    1.237794e+01    6.745491e+03    0.000000e+00
   1.640771e-03    6.708255e+04    3.228538e+00    6.707932e+04    0.000000e+00    7.870397e+03   -3.018802e+01    1.227332e+01    6.730089e+03    0.000000e+00
   1.657785e-03    6.604774e+04    3.241122e+00    6.604450e+04    0.000000e+00    7.789091e+03   -3.003276e+01    1.229909e+01    6.714527e+03    0.000000e+00
   1.674975e-03    6.502883e+04    3.237727e+00    6.502559e+04    0.000000e+00    7.708620e+03   -2.987828e+01    1.229215e+01    6.698804e+03    0.000000e+00
   1.692343e-03    6.402555e+04    3.211090e+00    6.402234e+04    0.000000e+00    7.628975e+03   -2.972460e+01    1.223741e+01    6.682917e+03    0.000000e+00
   1.709892e-03    6.303767e+04    3.162655e+00    6.303451e+04    0.000000e+00    7.550147e+03   -2.957169e+01    1.213811e+01    6.666866e+03    0.000000e+00
   1.727622e-03    6.206504e+04    3.172726e+00    6.206187e+04    0.000000e+00    7.472129e+03   -2.941957e+01    1.215872e+01    6.650648e+03    0.000000e+00
   1.745537e-03    6.110735e+04    3.169142e+00    6.110418e+04    0.000000e+00    7.394911e+03   -2.926823e+01    1.215139e+01    6.634262e+03    0.000000e+00
   1.763637e-03    6.016436e+04    3.144063e+00    6.016121e+04    0.000000e+00    7.318487e+03   -2.911766e+01    1.209987e+01    6.617707e+03    0.000000e+00
   1.781925e-03    5.923584e+04    3.098518e+00    5.923274e+04    0.000000e+00    7.242846e+03   -2.896785e+01    1.200522e+01    6.600979e+03    0.000000e+00
   1.800402e-03    5.832165e+04    3.105427e+00    5.831855e+04    0.000000e+00    7.167983e+03   -2.881882e+01    1.201967e+01    6.584079e+03    0.000000e+00
   1.819071e-03    5.742151e+04    3.102061e+00    5.741841e+04    0.000000e+00    7.093888e+03   -2.867054e+01    1.201263e+01    6.567003e+03    0.000000e+00
   1.837934e-03    5.653519e+04    3.078606e+00    5.653211e+04    0.000000e+00    7.020554e+03   -2.852302e+01    1.196420e+01    6.549749e+03    0.000000e+00
   1.856992e-03    5.566247e+04    3.036018e+00    5.565944e+04    0.000000e+00    6.947972e+03   -2.837625e+01    1.187576e+01    6.532317e+03    0.000000e+00
   1.876248e-03    5.480322e+04    3.039300e+00    5.480018e+04    0.000000e+00    6.876136e+03   -2.823024e+01    1.188262e+01    6.514705e+03    0.000000e+00
   1.895703e-03    5.395717e+04    3.036406e+00    5.395414e+04    0.000000e+00    6.805037e+03   -2.808497e+01    1.187657e+01    6.496909e+03    0.000000e+00
   1.915360e-03    5.312412e+04    3.014733e+00    5.312110e+04    0.000000e+00    6.734668e+03   -2.794043e+01    1.183108e+01    6.478929e+03    0.000000e+00
   1.935221e-03    5.230385e+04    2.975271e+00    5.230088e+04    0.000000e+00    6.665022e+03   -2.779664e+01    1.174862e+01    6.460763e+03    0.000000e+00
   1.955288e-03    5.149624e+04    2.974301e+00    5.149326e+04    0.000000e+00    6.596090e+03   -2.765358e+01    1.174659e+01    6.442408e+03    0.000000e+00
   1.975564e-03    5.070104e+04    2.972117e+00    5.069807e+04    0.000000e+00    6.527867e+03   -2.751125e+01    1.174202e+01    6.423863e+03    0.000000e+00
   1.996049e-03    4.991806e+04    2.952359e+00    4.991510e+04    0.000000e+00    6.460344e+03   -2.736965e+01    1.170057e+01    6.405125e+03    0.000000e+00
   2.016747e-03    4.914709e+04    2.915863e+00    4.914418e+04    0.000000e+00    6.393514e+03   -2.722877e+01    1.162324e+01    6.386194e+03    0.000000e+00
   2.037659e-03    4.838802e+04    2.910376e+00    4.838511e+04    0.000000e+00    6.327370e+03   -2.708861e+01    1.161153e+01    6.367066e+03    0.000000e+00
   2.058788e-03    4.764062e+04    2.909063e+00    4.763771e+04    0.000000e+00    6.261905e+03   -2.694916e+01    1.160877e+01    6.347739e+03    0.000000e+00
   2.080137e-03    4.690470e+04    2.891284e+00    4.690181e+04    0.000000e+00    6.197113e+03   -2.681043e+01    1.157148e+01    6.328213e+03    0.000000e+00
   2.101706e-03    4.618008e+04    2.857869e+00    4.617722e+04    0.000000e+00    6.132985e+03   -2.667240e+01    1.150075e+01    6.308483e+03    0.000000e+00
   2.123500e-03    4.546663e+04    2.847611e+00    4.546378e+04    0.000000e+00    6.069516e+03   -2.653507e+01    1.147886e+01    6.288550e+03    0.000000e+00
   2.145519e-03    4.476416e+04    2.847176e+00    4.476131e+04    0.000000e+00    6.006699e+03   -2.639845e+01    1.147794e+01    6.268409e+03    0.000000e+00
   2.167767e-03    4.407248e+04    2.831464e+00    4.406964e+04    0.000000e+00    5.944527e+03   -2.626253e+01    1.144426e+01    6.248060e+03    0.000000e+00
   2.190245e-03    4.339142e+04    2.801171e+00    4.338862e+04    0.000000e+00    5.882993e+03   -2.612729e+01    1.137972e+01    6.227499e+03    0.000000e+00
   2.212956e-03    4.272085e+04    2.785786e+00    4.271807e+04    0.000000e+00    5.822090e+03   -2.599275e+01    1.134691e+01    6.206726e+03    0.000000e+00
   2.235903e-03    4.206061e+04    2.786419e+00    4.205783e+04    0.000000e+00    5.761814e+03   -2.585889e+01    1.134827e+01    6.185737e+03    0.000000e+00
   2.259088e-03    4.141052e+04    2.772795e+00    4.140775e+04    0.000000e+00    5.702156e+03   -2.572572e+01    1.131907e+01    6.164530e+03    0.000000e+00
   2.282513e-03    4.077041e+04    2.745529e+00    4.076766e+04    0.000000e+00    5.643110e+03   -2.559322e+01    1.126020e+01    6.143104e+03    0.000000e+00
   2.306182e-03    4.014015e+04    2.724928e+00    4.013743e+04    0.000000e+00    5.584671e+03   -2.546139e+01    1.121579e+01    6.121455e+03    0.000000e+00
   2.330095e-03    3.951961e+04    2.726733e+00    3.951689e+04    0.000000e+00    5.526832e+03   -2.533025e+01    1.121965e+01    6.099582e+03    0.000000e+00
   2.354257e-03    3.890861e+04    2.715151e+00    3.890589e+04    0.000000e+00    5.469587e+03   -2.519977e+01    1.119483e+01    6.077482e+03    0.000000e+00
   2.378669e-03    3.830699e+04    2.690895e+00    3.830430e+04    0.000000e+00    5.412929e+03   -2.506995e+01    1.114251e+01    6.055153e+03    0.000000e+00
   2.403334e-03    3.771462e+04    2.664955e+00    3.771196e+04    0.000000e+00    5.356853e+03   -2.494079e+01    1.108601e+01    6.032592e+03    0.000000e+00
   2.428255e-03    3.713140e+04    2.668005e+00    3.712873e+04    0.000000e+00    5.301353e+03   -2.481230e+01    1.109268e+01    6.009797e+03    0.000000e+00
   2.453435e-03    3.655713e+04    2.658506e+00    3.655448e+04    0.000000e+00    5.246423e+03   -2.468446e+01    1.107188e+01    5.986766e+03    0.000000e+00
   2.478875e-03    3.599169e+04    2.637166e+00    3.598906e+04    0.000000e+00    5.192057e+03   -2.455726e+01    1.102554e+01    5.963496e+03    0.000000e+00
   2.504580e-03    3.543494e+04    2.605818e+00    3.543234e+04    0.000000e+00    5.138250e+03   -2.443072e+01    1.095728e+01    5.939985e+03    0.000000e+00
   2.530551e-03    3.488679e+04    2.610138e+00    3.488418e+04    0.000000e+00    5.084995e+03   -2.430482e+01    1.096674e+01    5.916230e+03    0.000000e+00
   2.556791e-03    3.434707e+04    2.602746e+00    3.434446e+04    0.000000e+00    5.032286e+03   -2.417957e+01    1.095055e+01    5.892229e+03    0.000000e+00
   2.583303e-03    3.381563e+04    2.584200e+00    3.381305e+04    0.000000e+00    4.980119e+03   -2.405495e+01    1.090972e+01    5.867979e+03    0.000000e+00
   2.610090e-03    3.329237e+04    2.555173e+00    3.328981e+04    0.000000e+00    4.928488e+03   -2.393096e+01    1.084594e+01    5.843477e+03    0.000000e+00
   2.637155e-03    3.277718e+04    2.553077e+00    3.277463e+04    0.000000e+00    4.877386e+03   -2.380761e+01    1.084135e+01    5.818722e+03    0.000000e+00
   2.664501e-03    3.226992e+04    2.547722e+00    3.226737e+04    0.000000e+00    4.826810e+03   -2.368488e+01    1.082962e+01    5.793710e+03    0.000000e+00
   2.692130e-03    3.177045e+04    2.532003e+00    3.176792e+04    0.000000e+00    4.776753e+03   -2.356278e+01    1.079504e+01    5.768438e+03    0.000000e+00
   2.720046e-03    3.127866e+04    2.506395e+00    3.127616e+04    0.000000e+00    4.727210e+03   -2.344130e+01    1.073822e+01    5.742904e+03    0.000000e+00
   2.748251e-03    3.079446e+04    2.496741e+00    3.079196e+04    0.000000e+00    4.678175e+03   -2.332044e+01    1.071665e+01    5.717106e+03    0.000000e+00
   2.776748e-03    3.031771e+04    2.493430e+00    3.031522e+04    0.000000e+00    4.629645e+03   -2.320019e+01    1.070923e+01    5.691040e+03    0.000000e+00
   2.805541e-03    2.984829e+04    2.480382e+00    2.984581e+04    0.000000e+00    4.581612e+03   -2.308056e+01    1.068045e+01    5.664703e+03    0.000000e+00
   2.834633e-03    2.938609e+04    2.458102e+00    2.938363e+04    0.000000e+00    4.534073e+03   -2.296153e+01    1.063109e+01    5.638094e+03    0.000000e+00
   2.864026e-03    2.893101e+04    2.441067e+00    2.892857e+04    0.000000e+00    4.487022e+03   -2.284311e+01    1.059305e+01    5.611209e+03    0.000000e+00
   2.893725e-03    2.848294e+04    2.439730e+00    2.848050e+04    0.000000e+00    4.440454e+03   -2.272530e+01    1.059005e+01    5.584044e+03    0.000000e+00
   2.923731e-03    2.804177e+04    2.429284e+00    2.803934e+04    0.000000e+00    4.394365e+03   -2.260808e+01    1.056657e+01    5.556599e+03    0.000000e+00
   2.954048e-03    2.760738e+04    2.410196e+00    2.760497e+04    0.000000e+00    4.348749e+03   -2.249145e+01    1.052367e+01    5.528868e+03    0.000000e+00
   2.984679e-03    2.717967e+04    2.385980e+00    2.717728e+04    0.000000e+00    4.303601e+03   -2.237542e+01    1.046960e+01    5.500850e+03    0.000000e+00
   3.015629e-03    2.675856e+04    2.386569e+00    2.675618e+04    0.000000e+00    4.258917e+03   -2.225999e+01    1.047092e+01    5.472542e+03    0.000000e+00
   3.046899e-03    2.634394e+04    2.378611e+00    2.634156e+04    0.000000e+00    4.214692e+03   -2.214514e+01    1.045303e+01    5.443940e+03    0.000000e+00
   3.078493e-03    2.593569e+04    2.362599e+00    2.593332e+04    0.000000e+00    4.170921e+03   -2.203087e+01    1.041685e+01    5.415041e+03    0.000000e+00
   3.110415e-03    2.553371e+04    2.338904e+00    2.553137e+04    0.000000e+00    4.127600e+03   -2.191718e+01    1.036300e+01    5.385843e+03    0.000000e+00
   3.142668e-03    2.513795e+04    3.703452e+00    2.513424e+04    0.000000e+00    4.084723e+03   -2.180407e+01    1.322329e+01    5.356342e+03    0.000000e+00
   3.175256e-03    2.474827e+04    3.688604e+00    2.474459e+04    0.000000e+00    4.042287e+03   -2.169154e+01    1.319432e+01    5.326535e+03    0.000000e+00
   3.208181e-03    2.436459e+04    3.668741e+00    2.436093e+04    0.000000e+00    4.000287e+03   -2.157957e+01    1.315537e+01    5.296419e+03    0.000000e+00
   3.241448e-03    2.398682e+04    3.644148e+00    2.398317e+04    0.000000e+00    3.958718e+03   -2.146818e+01    1.310686e+01    5.265991e+03    0.000000e+00
   3.275059e-03    2.361486e+04    3.624225e+00    2.361124e+04    0.000000e+00    3.917576e+03   -2.135735e+01    1.306731e+01    5.235247e+03    0.000000e+00
   3.309020e-03    2.324864e+04    3.611111e+00    2.324503e+04    0.000000e+00    3.876857e+03   -2.124709e+01    1.304139e+01    5.204184e+03    0.000000e+00
   3.343332e-03    2.288806e+04    3.593321e+00    2.288447e+04    0.000000e+00    3.836556e+03   -2.113738e+01    1.300653e+01    5.172800e+03    0.000000e+00
   3.378000e-03    2.253302e+04    3.571101e+00    2.252945e+04    0.000000e+00    3.796669e+03   -2.102823e+01    1.296273e+01    5.141090e+03    0.000000e+00
   3.413028e-03    2.218345e+04    3.546065e+00    2.217990e+04    0.000000e+00    3.757192e+03   -2.091964e+01    1.291305e+01    5.109051e+03    0.000000e+00
   3.448419e-03    2.183928e+04    3.534614e+00    2.183575e+04    0.000000e+00    3.718120e+03   -2.081160e+01    1.289021e+01    5.076680e+03    0.000000e+00
   3.484177e-03    2.150041e+04    3.518816e+00    2.149689e+04    0.000000e+00    3.679449e+03   -2.070411e+01    1.285857e+01    5.043973e+03    0.000000e+00
