# Model replicates Starrett & Saumon 2014 'A simple method for determining the ionic structure of warm dense matter'
# Convergence: Err(φ)=3.751e-11, Err(n_e)=2.929e-13, Err(IET)=9.993e-13, Q_net=-2.190e-11
# {"name":"CS2014_Al", "Z":13, "Zstar":3.3720825982772857, "A":26.981539,  "μ[AU]": 5.6525862579e-03, "Te[AU]": 3.675e-01, "Ti[AU]": 3.675e-02, "rs[AU]": 2.990e+00 }
   r[AU]           ne_full[AU]     n_ion[AU]       ne_ext[AU]      ne_PA[AU]       ne_scr[AU]      
   1.000000e-03    1.415612e+05    1.415610e+05    8.663839e-03    1.415612e+05    2.000530e-01
   1.005517e-03    1.403951e+05    1.403950e+05    8.663839e-03    1.403951e+05    1.386578e-01
   1.011065e-03    1.392387e+05    1.392385e+05    8.663839e-03    1.392387e+05    1.796413e-01
   1.016643e-03    1.380918e+05    1.380916e+05    8.663839e-03    1.380918e+05    1.576311e-01
   1.022253e-03    1.369543e+05    1.369541e+05    8.663839e-03    1.369543e+05    1.661343e-01
   1.027893e-03    1.358262e+05    1.358260e+05    8.663839e-03    1.358262e+05    1.759855e-01
   1.033564e-03    1.347073e+05    1.347072e+05    8.663839e-03    1.347073e+05    1.697288e-01
   1.039266e-03    1.335977e+05    1.335975e+05    8.663839e-03    1.335977e+05    1.654310e-01
   1.045000e-03    1.324971e+05    1.324970e+05    8.663839e-03    1.324971e+05    1.576782e-01
   1.050766e-03    1.314056e+05    1.314055e+05    8.663839e-03    1.314056e+05    1.708968e-01
   1.056563e-03    1.303231e+05    1.303229e+05    8.663839e-03    1.303231e+05    1.326321e-01
   1.062393e-03    1.292495e+05    1.292493e+05    8.663839e-03    1.292495e+05    1.819000e-01
   1.068254e-03    1.281847e+05    1.281845e+05    8.663839e-03    1.281847e+05    1.505809e-01
   1.074148e-03    1.271287e+05    1.271285e+05    8.663839e-03    1.271287e+05    1.827262e-01
   1.080075e-03    1.260813e+05    1.260811e+05    8.663839e-03    1.260813e+05    1.466666e-01
   1.086034e-03    1.250426e+05    1.250424e+05    8.663839e-03    1.250426e+05    1.756363e-01
   1.092026e-03    1.240123e+05    1.240122e+05    8.663839e-03    1.240123e+05    9.477456e-02
   1.098051e-03    1.229906e+05    1.229904e+05    8.663839e-03    1.229906e+05    1.743579e-01
   1.104109e-03    1.219773e+05    1.219771e+05    8.663839e-03    1.219772e+05    1.410735e-01
   1.110201e-03    1.209723e+05    1.209721e+05    8.663839e-03    1.209723e+05    1.786113e-01
   1.116326e-03    1.199755e+05    1.199753e+05    8.663839e-03    1.199755e+05    1.445399e-01
   1.122485e-03    1.189870e+05    1.189868e+05    8.663839e-03    1.189870e+05    1.727182e-01
   1.128678e-03    1.180065e+05    1.180064e+05    8.663839e-03    1.180065e+05    1.184678e-01
   1.134906e-03    1.170342e+05    1.170340e+05    8.663839e-03    1.170342e+05    1.603894e-01
   1.141167e-03    1.160698e+05    1.160696e+05    8.663839e-03    1.160698e+05    1.403332e-01
   1.147463e-03    1.151134e+05    1.151132e+05    8.663839e-03    1.151133e+05    1.533811e-01
   1.153794e-03    1.141648e+05    1.141646e+05    8.663839e-03    1.141648e+05    1.501656e-01
   1.160160e-03    1.132240e+05    1.132238e+05    8.663839e-03    1.132240e+05    1.575368e-01
   1.166561e-03    1.122909e+05    1.122908e+05    8.663839e-03    1.122909e+05    1.415213e-01
   1.172997e-03    1.113656e+05    1.113654e+05    8.663839e-03    1.113656e+05    1.404520e-01
   1.179469e-03    1.104478e+05    1.104476e+05    8.663839e-03    1.104478e+05    1.507321e-01
   1.185977e-03    1.095376e+05    1.095374e+05    8.663839e-03    1.095375e+05    1.234770e-01
   1.192520e-03    1.086349e+05    1.086347e+05    8.663839e-03    1.086348e+05    1.626997e-01
   1.199100e-03    1.077395e+05    1.077394e+05    8.663839e-03    1.077395e+05    1.402207e-01
   1.205715e-03    1.068516e+05    1.068514e+05    8.663839e-03    1.068516e+05    1.557416e-01
   1.212368e-03    1.059709e+05    1.059708e+05    8.663839e-03    1.059709e+05    1.229867e-01
   1.219057e-03    1.050975e+05    1.050973e+05    8.663839e-03    1.050975e+05    1.540703e-01
   1.225783e-03    1.042312e+05    1.042311e+05    8.663839e-03    1.042312e+05    1.008045e-01
   1.232546e-03    1.033722e+05    1.033720e+05    8.663839e-03    1.033722e+05    1.569507e-01
   1.239346e-03    1.025201e+05    1.025200e+05    8.663839e-03    1.025201e+05    1.317431e-01
   1.246184e-03    1.016751e+05    1.016749e+05    8.663839e-03    1.016751e+05    1.617965e-01
   1.253059e-03    1.008370e+05    1.008368e+05    8.663839e-03    1.008369e+05    1.206439e-01
   1.259973e-03    1.000058e+05    1.000056e+05    8.663839e-03    1.000058e+05    1.502236e-01
   1.266925e-03    9.918137e+04    9.918126e+04    8.663839e-03    9.918136e+04    1.069702e-01
   1.273915e-03    9.836382e+04    9.836367e+04    8.663839e-03    9.836381e+04    1.432714e-01
   1.280943e-03    9.755294e+04    9.755280e+04    8.663839e-03    9.755293e+04    1.312918e-01
   1.288011e-03    9.674875e+04    9.674860e+04    8.663839e-03    9.674874e+04    1.409014e-01
   1.295117e-03    9.595115e+04    9.595101e+04    8.663839e-03    9.595114e+04    1.253191e-01
   1.302263e-03    9.516013e+04    9.515998e+04    8.663839e-03    9.516012e+04    1.398687e-01
   1.309448e-03    9.437559e+04    9.437546e+04    8.663839e-03    9.437558e+04    1.255262e-01
   1.316672e-03    9.359752e+04    9.359738e+04    8.663839e-03    9.359751e+04    1.239880e-01
   1.323937e-03    9.282585e+04    9.282571e+04    8.663839e-03    9.282584e+04    1.367634e-01
   1.331241e-03    9.206050e+04    9.206037e+04    8.663839e-03    9.206049e+04    1.178792e-01
   1.338586e-03    9.130148e+04    9.130134e+04    8.663839e-03    9.130147e+04    1.380945e-01
   1.345972e-03    9.054867e+04    9.054854e+04    8.663839e-03    9.054866e+04    1.256583e-01
   1.353398e-03    8.980208e+04    8.980193e+04    8.663839e-03    8.980207e+04    1.358971e-01
   1.360865e-03    8.906157e+04    8.906147e+04    8.663839e-03    8.906156e+04    9.967053e-02
   1.368373e-03    8.832723e+04    8.832709e+04    8.663839e-03    8.832722e+04    1.375417e-01
   1.375923e-03    8.759886e+04    8.759875e+04    8.663839e-03    8.759885e+04    1.073835e-01
   1.383514e-03    8.687655e+04    8.687640e+04    8.663839e-03    8.687654e+04    1.428547e-01
   1.391148e-03    8.616011e+04    8.615998e+04    8.663839e-03    8.616010e+04    1.187669e-01
   1.398823e-03    8.544961e+04    8.544946e+04    8.663839e-03    8.544960e+04    1.387986e-01
   1.406541e-03    8.474489e+04    8.474479e+04    8.663839e-03    8.474488e+04    9.450647e-02
   1.414301e-03    8.404604e+04    8.404590e+04    8.663839e-03    8.404604e+04    1.317477e-01
   1.422104e-03    8.335288e+04    8.335277e+04    8.663839e-03    8.335287e+04    1.046759e-01
   1.429950e-03    8.266547e+04    8.266533e+04    8.663839e-03    8.266546e+04    1.285384e-01
   1.437840e-03    8.198368e+04    8.198355e+04    8.663839e-03    8.198367e+04    1.189319e-01
   1.445773e-03    8.130751e+04    8.130738e+04    8.663839e-03    8.130751e+04    1.299556e-01
   1.453750e-03    8.063688e+04    8.063676e+04    8.663839e-03    8.063687e+04    1.064417e-01
   1.461770e-03    7.997179e+04    7.997166e+04    8.663839e-03    7.997178e+04    1.199704e-01
   1.469835e-03    7.931215e+04    7.931203e+04    8.663839e-03    7.931214e+04    1.154194e-01
   1.477945e-03    7.865794e+04    7.865782e+04    8.663839e-03    7.865793e+04    1.089016e-01
   1.486099e-03    7.800913e+04    7.800900e+04    8.663839e-03    7.800912e+04    1.254413e-01
   1.494299e-03    7.736563e+04    7.736551e+04    8.663839e-03    7.736562e+04    1.142560e-01
   1.502543e-03    7.672744e+04    7.672731e+04    8.663839e-03    7.672743e+04    1.209567e-01
   1.510833e-03    7.609447e+04    7.609436e+04    8.663839e-03    7.609446e+04    1.055973e-01
   1.519169e-03    7.546674e+04    7.546661e+04    8.663839e-03    7.546674e+04    1.213779e-01
   1.527551e-03    7.484413e+04    7.484403e+04    8.663839e-03    7.484412e+04    8.445067e-02
   1.535979e-03    7.422670e+04    7.422657e+04    8.663839e-03    7.422670e+04    1.248831e-01
   1.544453e-03    7.361430e+04    7.361419e+04    8.663839e-03    7.361429e+04    1.061700e-01
   1.552974e-03    7.300698e+04    7.300684e+04    8.663839e-03    7.300697e+04    1.278722e-01
   1.561542e-03    7.240460e+04    7.240449e+04    8.663839e-03    7.240459e+04    1.004691e-01
   1.570158e-03    7.180722e+04    7.180709e+04    8.663839e-03    7.180721e+04    1.205525e-01
   1.578821e-03    7.121470e+04    7.121461e+04    8.663839e-03    7.121469e+04    8.392926e-02
   1.587532e-03    7.062712e+04    7.062699e+04    8.663839e-03    7.062711e+04    1.165271e-01
   1.596291e-03    7.004433e+04    7.004422e+04    8.663839e-03    7.004432e+04    1.048636e-01
   1.605098e-03    6.946635e+04    6.946623e+04    8.663839e-03    6.946635e+04    1.154476e-01
   1.613954e-03    6.889311e+04    6.889300e+04    8.663839e-03    6.889310e+04    1.015278e-01
   1.622859e-03    6.832460e+04    6.832448e+04    8.663839e-03    6.832459e+04    1.135264e-01
   1.631812e-03    6.776075e+04    6.776064e+04    8.663839e-03    6.776074e+04    1.000280e-01
   1.640816e-03    6.720155e+04    6.720144e+04    8.663839e-03    6.720154e+04    1.025807e-01
   1.649869e-03    6.664695e+04    6.664683e+04    8.663839e-03    6.664694e+04    1.092361e-01
   1.658971e-03    6.609689e+04    6.609679e+04    8.663839e-03    6.609689e+04    9.750755e-02
   1.668124e-03    6.555139e+04    6.555127e+04    8.663839e-03    6.555138e+04    1.095363e-01
   1.677328e-03    6.501035e+04    6.501024e+04    8.663839e-03    6.501034e+04    1.022293e-01
   1.686582e-03    6.447377e+04    6.447366e+04    8.663839e-03    6.447377e+04    1.086910e-01
   1.695888e-03    6.394158e+04    6.394149e+04    8.663839e-03    6.394157e+04    8.356215e-02
   1.705244e-03    6.341382e+04    6.341370e+04    8.663839e-03    6.341381e+04    1.104619e-01
   1.714653e-03    6.289035e+04    6.289025e+04    8.663839e-03    6.289034e+04    9.031953e-02
   1.724113e-03    6.237123e+04    6.237111e+04    8.663839e-03    6.237122e+04    1.148471e-01
   1.733626e-03    6.185634e+04    6.185623e+04    8.663839e-03    6.185633e+04    9.638214e-02
   1.743191e-03    6.134572e+04    6.134560e+04    8.663839e-03    6.134571e+04    1.105374e-01
   1.752808e-03    6.083924e+04    6.083916e+04    8.663839e-03    6.083924e+04    7.600872e-02
   1.762479e-03    6.033700e+04    6.033689e+04    8.663839e-03    6.033699e+04    1.056104e-01
   1.772203e-03    5.983885e+04    5.983875e+04    8.663839e-03    5.983884e+04    8.946234e-02
   1.781981e-03    5.934482e+04    5.934471e+04    8.663839e-03    5.934481e+04    1.032214e-01
   1.791813e-03    5.885483e+04    5.885473e+04    8.663839e-03    5.885482e+04    9.644798e-02
   1.801699e-03    5.836889e+04    5.836878e+04    8.663839e-03    5.836888e+04    1.043660e-01
   1.811639e-03    5.788693e+04    5.788683e+04    8.663839e-03    5.788692e+04    8.964017e-02
   1.821635e-03    5.740895e+04    5.740885e+04    8.663839e-03    5.740894e+04    9.510850e-02
   1.831685e-03    5.693490e+04    5.693479e+04    8.663840e-03    5.693489e+04    9.632656e-02
   1.841791e-03    5.646473e+04    5.646464e+04    8.663840e-03    5.646472e+04    8.660501e-02
   1.851953e-03    5.599846e+04    5.599835e+04    8.663840e-03    5.599846e+04    1.019280e-01
   1.862171e-03    5.553601e+04    5.553590e+04    8.663840e-03    5.553600e+04    9.333720e-02
   1.872445e-03    5.507737e+04    5.507726e+04    8.663840e-03    5.507736e+04    9.898757e-02
   1.882776e-03    5.462248e+04    5.462239e+04    8.663840e-03    5.462247e+04    8.151401e-02
   1.893164e-03    5.417136e+04    5.417126e+04    8.663840e-03    5.417136e+04    9.911379e-02
   1.903609e-03    5.372392e+04    5.372384e+04    8.663840e-03    5.372391e+04    7.568259e-02
   1.914112e-03    5.328021e+04    5.328010e+04    8.663840e-03    5.328020e+04    1.013596e-01
   1.924672e-03    5.284011e+04    5.284001e+04    8.663840e-03    5.284010e+04    8.838681e-02
   1.935291e-03    5.240366e+04    5.240355e+04    8.663840e-03    5.240365e+04    1.016643e-01
   1.945969e-03    5.197076e+04    5.197067e+04    8.663840e-03    5.197075e+04    7.781247e-02
   1.956706e-03    5.154147e+04    5.154136e+04    8.663840e-03    5.154146e+04    9.585774e-02
   1.967501e-03    5.111567e+04    5.111558e+04    8.663840e-03    5.111566e+04    7.811042e-02
   1.978357e-03    5.069340e+04    5.069330e+04    8.663840e-03    5.069339e+04    9.219302e-02
   1.989272e-03    5.027460e+04    5.027450e+04    8.663840e-03    5.027459e+04    8.896388e-02
   2.000247e-03    4.985924e+04    4.985914e+04    8.663840e-03    4.985923e+04    9.195005e-02
   2.011283e-03    4.944729e+04    4.944720e+04    8.663840e-03    4.944728e+04    8.303671e-02
   2.022380e-03    4.903874e+04    4.903865e+04    8.663840e-03    4.903874e+04    8.696095e-02
   2.033538e-03    4.863356e+04    4.863346e+04    8.663840e-03    4.863355e+04    8.726626e-02
   2.044758e-03    4.823169e+04    4.823160e+04    8.663840e-03    4.823168e+04    7.794797e-02
   2.056040e-03    4.783316e+04    4.783306e+04    8.663840e-03    4.783315e+04    9.336246e-02
   2.067383e-03    4.743788e+04    4.743779e+04    8.663840e-03    4.743787e+04    8.327490e-02
   2.078790e-03    4.704587e+04    4.704577e+04    8.663840e-03    4.704586e+04    9.158294e-02
   2.090259e-03    4.665706e+04    4.665698e+04    8.663840e-03    4.665706e+04    7.798706e-02
   2.101792e-03    4.627148e+04    4.627138e+04    8.663840e-03    4.627148e+04    9.005204e-02
   2.113388e-03    4.588904e+04    4.588897e+04    8.663840e-03    4.588903e+04    6.464762e-02
   2.125048e-03    4.550979e+04    4.550969e+04    8.663840e-03    4.550978e+04    9.034866e-02
   2.136773e-03    4.513363e+04    4.513354e+04    8.663840e-03    4.513362e+04    8.010872e-02
   2.148562e-03    4.476059e+04    4.476049e+04    8.663840e-03    4.476058e+04    9.235676e-02
   2.160416e-03    4.439058e+04    4.439050e+04    8.663840e-03    4.439058e+04    7.505068e-02
   2.172336e-03    4.402365e+04    4.402356e+04    8.663840e-03    4.402365e+04    8.688708e-02
   2.184321e-03    4.365972e+04    4.365964e+04    8.663840e-03    4.365971e+04    7.324334e-02
   2.196373e-03    4.329880e+04    4.329871e+04    8.663840e-03    4.329879e+04    8.193446e-02
   2.208491e-03    4.294085e+04    4.294075e+04    8.663840e-03    4.294084e+04    8.189207e-02
   2.220676e-03    4.258583e+04    4.258574e+04    8.663840e-03    4.258582e+04    8.040251e-02
   2.232928e-03    4.223374e+04    4.223365e+04    8.663840e-03    4.223373e+04    7.882248e-02
   2.245248e-03    4.188455e+04    4.188446e+04    8.663840e-03    4.188454e+04    7.847625e-02
   2.257636e-03    4.153823e+04    4.153814e+04    8.663840e-03    4.153823e+04    8.083287e-02
   2.270092e-03    4.119475e+04    4.119468e+04    8.663840e-03    4.119475e+04    6.854031e-02
   2.282617e-03    4.085413e+04    4.085404e+04    8.663840e-03    4.085412e+04    8.438608e-02
   2.295210e-03    4.051628e+04    4.051620e+04    8.663840e-03    4.051627e+04    7.443639e-02
   2.307874e-03    4.018124e+04    4.018114e+04    8.663840e-03    4.018123e+04    8.537006e-02
   2.320607e-03    3.984892e+04    3.984884e+04    8.663840e-03    3.984892e+04    7.222930e-02
   2.333411e-03    3.951937e+04    3.951928e+04    8.663840e-03    3.951936e+04    8.231592e-02
   2.346285e-03    3.919250e+04    3.919243e+04    8.663840e-03    3.919249e+04    5.907878e-02
   2.359230e-03    3.886836e+04    3.886827e+04    8.663840e-03    3.886835e+04    8.073843e-02
   2.372247e-03    3.854686e+04    3.854677e+04    8.663840e-03    3.854685e+04    7.336753e-02
   2.385335e-03    3.822802e+04    3.822793e+04    8.663840e-03    3.822801e+04    8.060142e-02
   2.398496e-03    3.791178e+04    3.791170e+04    8.663841e-03    3.791178e+04    7.067395e-02
   2.411729e-03    3.759817e+04    3.759809e+04    8.663841e-03    3.759816e+04    7.805989e-02
   2.425035e-03    3.728713e+04    3.728705e+04    8.663841e-03    3.728712e+04    7.052269e-02
   2.438415e-03    3.697865e+04    3.697857e+04    8.663841e-03    3.697864e+04    7.188957e-02
   2.451868e-03    3.667272e+04    3.667263e+04    8.663841e-03    3.667271e+04    7.654380e-02
   2.465396e-03    3.636929e+04    3.636921e+04    8.663841e-03    3.636928e+04    7.106876e-02
   2.478998e-03    3.606837e+04    3.606829e+04    8.663841e-03    3.606836e+04    7.566985e-02
   2.492676e-03    3.576992e+04    3.576984e+04    8.663841e-03    3.576991e+04    7.022175e-02
   2.506429e-03    3.547394e+04    3.547385e+04    8.663841e-03    3.547393e+04    7.553562e-02
   2.520258e-03    3.518037e+04    3.518030e+04    8.663841e-03    3.518036e+04    5.818694e-02
   2.534163e-03    3.488925e+04    3.488917e+04    8.663841e-03    3.488924e+04    7.673675e-02
   2.548144e-03    3.460051e+04    3.460043e+04    8.663841e-03    3.460050e+04    6.783059e-02
   2.562203e-03    3.431416e+04    3.431407e+04    8.663841e-03    3.431415e+04    7.906090e-02
   2.576340e-03    3.403014e+04    3.403006e+04    8.663841e-03    3.403013e+04    6.614133e-02
   2.590554e-03    3.374848e+04    3.374840e+04    8.663841e-03    3.374847e+04    7.476120e-02
   2.604847e-03    3.346912e+04    3.346905e+04    8.663841e-03    3.346911e+04    6.055449e-02
   2.619219e-03    3.319208e+04    3.319200e+04    8.663841e-03    3.319207e+04    7.143469e-02
   2.633670e-03    3.291731e+04    3.291724e+04    8.663841e-03    3.291731e+04    6.887952e-02
   2.648201e-03    3.264481e+04    3.264473e+04    8.663841e-03    3.264480e+04    6.934074e-02
   2.662812e-03    3.237455e+04    3.237447e+04    8.663841e-03    3.237454e+04    6.616551e-02
   2.677503e-03    3.210652e+04    3.210644e+04    8.663841e-03    3.210651e+04    6.857847e-02
   2.692276e-03    3.184069e+04    3.184061e+04    8.663841e-03    3.184068e+04    6.832889e-02
   2.707130e-03    3.157704e+04    3.157697e+04    8.663841e-03    3.157703e+04    6.115618e-02
   2.722066e-03    3.131558e+04    3.131550e+04    8.663841e-03    3.131557e+04    7.157351e-02
   2.737085e-03    3.105626e+04    3.105618e+04    8.663841e-03    3.105625e+04    6.434785e-02
   2.752186e-03    3.079909e+04    3.079900e+04    8.663841e-03    3.079908e+04    7.217614e-02
   2.767371e-03    3.054401e+04    3.054394e+04    8.663841e-03    3.054400e+04    6.252744e-02
   2.782639e-03    3.029106e+04    3.029098e+04    8.663841e-03    3.029105e+04    7.005523e-02
   2.797992e-03    3.004016e+04    3.004010e+04    8.663841e-03    3.004015e+04    5.208074e-02
   2.813429e-03    2.979136e+04    2.979129e+04    8.663841e-03    2.979135e+04    6.904791e-02
   2.828952e-03    2.954459e+04    2.954452e+04    8.663842e-03    2.954458e+04    6.350310e-02
   2.844560e-03    2.929987e+04    2.929979e+04    8.663842e-03    2.929986e+04    6.901816e-02
   2.860254e-03    2.905714e+04    2.905707e+04    8.663842e-03    2.905713e+04    6.056886e-02
   2.876035e-03    2.881643e+04    2.881635e+04    8.663842e-03    2.881642e+04    6.633307e-02
   2.891903e-03    2.857769e+04    2.857762e+04    8.663842e-03    2.857768e+04    6.159153e-02
   2.907859e-03    2.834092e+04    2.834085e+04    8.663842e-03    2.834091e+04    6.141624e-02
   2.923902e-03    2.810610e+04    2.810603e+04    8.663842e-03    2.810609e+04    6.646387e-02
   2.940034e-03    2.787321e+04    2.787314e+04    8.663842e-03    2.787320e+04    6.205084e-02
   2.956255e-03    2.764225e+04    2.764217e+04    8.663842e-03    2.764224e+04    6.526793e-02
   2.972566e-03    2.741317e+04    2.741311e+04    8.663842e-03    2.741317e+04    5.933421e-02
   2.988967e-03    2.718600e+04    2.718593e+04    8.663842e-03    2.718599e+04    6.522824e-02
   3.005458e-03    2.696068e+04    2.696062e+04    8.663842e-03    2.696067e+04    5.073310e-02
   3.022040e-03    2.673724e+04    2.673717e+04    8.663842e-03    2.673723e+04    6.588789e-02
   3.038713e-03    2.651562e+04    2.651413e+04    8.663842e-03    2.651562e+04    1.481843e+00
