Model replicates Starrett & Saumon 2014 'A simple method for determining the ionic structure of warm dense matter'
 # {"name":"CS2014_Al", "Z":13, "Zstar":3.7646784592460185, "A":27,  "μ_core[AU]": 3.7209356677e-01, "μ_empty[AU]": 3.7209478113e-01, "Te[AU]": 1.837e-03, "Ti[AU]": 1.837e-03, "rs[AU]": 2.991e+00 }
   r[AU]           ne_full[AU]     n_ion[AU]       ne_ext[AU]      ne_PA[AU]       ne_scr[AU]      
   5.000000e-04    3.992754e+05    3.992665e+05    5.244689e-03    3.992754e+05    8.881068e+00
   5.027587e-04    3.959868e+05    3.959781e+05    5.244689e-03    3.959868e+05    8.714739e+00
   5.055327e-04    3.927255e+05    3.927167e+05    5.244689e-03    3.927255e+05    8.752379e+00
   5.083220e-04    3.894909e+05    3.894821e+05    5.244689e-03    3.894909e+05    8.760237e+00
   5.111266e-04    3.862829e+05    3.862742e+05    5.244689e-03    3.862829e+05    8.726586e+00
   5.139468e-04    3.831013e+05    3.830926e+05    5.244689e-03    3.831013e+05    8.689109e+00
   5.167825e-04    3.799458e+05    3.799372e+05    5.244689e-03    3.799458e+05    8.592680e+00
   5.196338e-04    3.768165e+05    3.768078e+05    5.244689e-03    3.768165e+05    8.680498e+00
   5.225009e-04    3.737127e+05    3.737041e+05    5.244689e-03    3.737127e+05    8.565221e+00
   5.253838e-04    3.706345e+05    3.706259e+05    5.244689e-03    3.706345e+05    8.621346e+00
   5.282826e-04    3.675816e+05    3.675731e+05    5.244689e-03    3.675816e+05    8.534151e+00
   5.311974e-04    3.645539e+05    3.645453e+05    5.244689e-03    3.645539e+05    8.602885e+00
   5.341283e-04    3.615509e+05    3.615425e+05    5.244689e-03    3.615509e+05    8.400061e+00
   5.370753e-04    3.585729e+05    3.585644e+05    5.244689e-03    3.585729e+05    8.515542e+00
   5.400386e-04    3.556192e+05    3.556107e+05    5.244689e-03    3.556192e+05    8.463485e+00
   5.430183e-04    3.526899e+05    3.526814e+05    5.244689e-03    3.526899e+05    8.489765e+00
   5.460144e-04    3.497845e+05    3.497762e+05    5.244689e-03    3.497845e+05    8.359999e+00
   5.490270e-04    3.469032e+05    3.468948e+05    5.244689e-03    3.469032e+05    8.375743e+00
   5.520563e-04    3.440456e+05    3.440372e+05    5.244689e-03    3.440455e+05    8.383769e+00
   5.551022e-04    3.412114e+05    3.412030e+05    5.244689e-03    3.412114e+05    8.344506e+00
   5.581650e-04    3.384005e+05    3.383922e+05    5.244689e-03    3.384005e+05    8.325684e+00
   5.612447e-04    3.356128e+05    3.356045e+05    5.244689e-03    3.356128e+05    8.248662e+00
   5.643413e-04    3.328481e+05    3.328397e+05    5.244689e-03    3.328480e+05    8.307245e+00
   5.674551e-04    3.301059e+05    3.300977e+05    5.244689e-03    3.301059e+05    8.189836e+00
   5.705860e-04    3.273865e+05    3.273782e+05    5.244689e-03    3.273865e+05    8.255326e+00
   5.737342e-04    3.246893e+05    3.246811e+05    5.244689e-03    3.246893e+05    8.182017e+00
   5.768998e-04    3.220145e+05    3.220062e+05    5.244689e-03    3.220145e+05    8.229418e+00
   5.800828e-04    3.193614e+05    3.193533e+05    5.244689e-03    3.193614e+05    8.031816e+00
   5.832834e-04    3.167304e+05    3.167222e+05    5.244689e-03    3.167304e+05    8.151972e+00
   5.865017e-04    3.141209e+05    3.141128e+05    5.244689e-03    3.141209e+05    8.106354e+00
   5.897377e-04    3.115330e+05    3.115248e+05    5.244689e-03    3.115329e+05    8.120091e+00
   5.929916e-04    3.089662e+05    3.089581e+05    5.244689e-03    3.089662e+05    8.016440e+00
   5.962634e-04    3.064206e+05    3.064126e+05    5.244689e-03    3.064206e+05    8.019948e+00
   5.995533e-04    3.038960e+05    3.038879e+05    5.244689e-03    3.038960e+05    8.022710e+00
   6.028613e-04    3.013921e+05    3.013841e+05    5.244689e-03    3.013921e+05    7.982206e+00
   6.061876e-04    2.989088e+05    2.989008e+05    5.244689e-03    2.989088e+05    7.976453e+00
   6.095322e-04    2.964459e+05    2.964380e+05    5.244689e-03    2.964459e+05    7.912947e+00
   6.128953e-04    2.940034e+05    2.939954e+05    5.244689e-03    2.940034e+05    7.951361e+00
   6.162769e-04    2.915808e+05    2.915729e+05    5.244689e-03    2.915808e+05    7.835219e+00
   6.196773e-04    2.891783e+05    2.891704e+05    5.244689e-03    2.891783e+05    7.905199e+00
   6.230963e-04    2.867955e+05    2.867876e+05    5.244689e-03    2.867954e+05    7.841261e+00
   6.265342e-04    2.844323e+05    2.844244e+05    5.244689e-03    2.844323e+05    7.874582e+00
   6.299911e-04    2.820884e+05    2.820807e+05    5.244689e-03    2.820884e+05    7.697745e+00
   6.334671e-04    2.797640e+05    2.797562e+05    5.244689e-03    2.797640e+05    7.805917e+00
   6.369623e-04    2.774587e+05    2.774509e+05    5.244689e-03    2.774587e+05    7.763314e+00
   6.404767e-04    2.751723e+05    2.751645e+05    5.244689e-03    2.751723e+05    7.770010e+00
   6.440105e-04    2.729046e+05    2.728970e+05    5.244689e-03    2.729046e+05    7.684211e+00
   6.475638e-04    2.706557e+05    2.706481e+05    5.244689e-03    2.706557e+05    7.682250e+00
   6.511368e-04    2.684253e+05    2.684177e+05    5.244689e-03    2.684253e+05    7.678131e+00
   6.547294e-04    2.662132e+05    2.662056e+05    5.244689e-03    2.662132e+05    7.641659e+00
   6.583419e-04    2.640194e+05    2.640117e+05    5.244689e-03    2.640194e+05    7.641345e+00
   6.619743e-04    2.618435e+05    2.618359e+05    5.244689e-03    2.618435e+05    7.587560e+00
   6.656267e-04    2.596857e+05    2.596780e+05    5.244689e-03    2.596856e+05    7.611480e+00
   6.692993e-04    2.575454e+05    2.575379e+05    5.244689e-03    2.575454e+05    7.500180e+00
   6.729921e-04    2.554229e+05    2.554153e+05    5.244689e-03    2.554229e+05    7.570789e+00
   6.767054e-04    2.533178e+05    2.533103e+05    5.244689e-03    2.533178e+05    7.513706e+00
   6.804391e-04    2.512300e+05    2.512225e+05    5.244689e-03    2.512300e+05    7.536666e+00
   6.841934e-04    2.491593e+05    2.491519e+05    5.244689e-03    2.491593e+05    7.382799e+00
   6.879684e-04    2.471058e+05    2.470984e+05    5.244689e-03    2.471058e+05    7.476773e+00
   6.917643e-04    2.450692e+05    2.450617e+05    5.244689e-03    2.450691e+05    7.434551e+00
   6.955811e-04    2.430493e+05    2.430418e+05    5.244689e-03    2.430493e+05    7.438339e+00
   6.994190e-04    2.410459e+05    2.410385e+05    5.244689e-03    2.410459e+05    7.363465e+00
   7.032780e-04    2.390591e+05    2.390517e+05    5.244689e-03    2.390591e+05    7.361691e+00
   7.071583e-04    2.370887e+05    2.370813e+05    5.244689e-03    2.370886e+05    7.349894e+00
   7.110601e-04    2.351344e+05    2.351271e+05    5.244689e-03    2.351344e+05    7.320406e+00
   7.149833e-04    2.331962e+05    2.331889e+05    5.244689e-03    2.331962e+05    7.319200e+00
   7.189283e-04    2.312740e+05    2.312667e+05    5.244689e-03    2.312740e+05    7.273547e+00
   7.228949e-04    2.293676e+05    2.293603e+05    5.244689e-03    2.293676e+05    7.286627e+00
   7.268835e-04    2.274768e+05    2.274696e+05    5.244689e-03    2.274768e+05    7.184780e+00
   7.308941e-04    2.256017e+05    2.255944e+05    5.244689e-03    2.256017e+05    7.251189e+00
   7.349268e-04    2.237419e+05    2.237347e+05    5.244689e-03    2.237419e+05    7.199389e+00
   7.389817e-04    2.218975e+05    2.218903e+05    5.244689e-03    2.218975e+05    7.215023e+00
   7.430590e-04    2.200681e+05    2.200611e+05    5.244689e-03    2.200681e+05    7.076968e+00
   7.471589e-04    2.182540e+05    2.182469e+05    5.244689e-03    2.182540e+05    7.163303e+00
   7.512813e-04    2.164547e+05    2.164476e+05    5.244689e-03    2.164547e+05    7.120347e+00
   7.554265e-04    2.146703e+05    2.146631e+05    5.244689e-03    2.146703e+05    7.123849e+00
   7.595946e-04    2.129004e+05    2.128933e+05    5.244689e-03    2.129004e+05    7.054403e+00
   7.637856e-04    2.111452e+05    2.111381e+05    5.244689e-03    2.111452e+05    7.056878e+00
   7.679998e-04    2.094044e+05    2.093974e+05    5.244689e-03    2.094044e+05    7.037998e+00
   7.722372e-04    2.076779e+05    2.076709e+05    5.244689e-03    2.076779e+05    7.015124e+00
   7.764980e-04    2.059657e+05    2.059587e+05    5.244689e-03    2.059657e+05    7.009663e+00
   7.807824e-04    2.042675e+05    2.042605e+05    5.244689e-03    2.042675e+05    6.971798e+00
   7.850903e-04    2.025833e+05    2.025763e+05    5.244689e-03    2.025833e+05    6.976133e+00
   7.894220e-04    2.009129e+05    2.009060e+05    5.244689e-03    2.009129e+05    6.890614e+00
   7.937777e-04    1.992564e+05    1.992494e+05    5.244689e-03    1.992564e+05    6.945625e+00
   7.981573e-04    1.976134e+05    1.976065e+05    5.244689e-03    1.976134e+05    6.898036e+00
   8.025612e-04    1.959840e+05    1.959771e+05    5.244689e-03    1.959840e+05    6.908791e+00
   8.069893e-04    1.943678e+05    1.943610e+05    5.244689e-03    1.943678e+05    6.780726e+00
   8.114418e-04    1.927652e+05    1.927583e+05    5.244689e-03    1.927652e+05    6.863779e+00
   8.159190e-04    1.911756e+05    1.911688e+05    5.244689e-03    1.911756e+05    6.820974e+00
   8.204208e-04    1.895992e+05    1.895923e+05    5.244689e-03    1.895992e+05    6.824565e+00
   8.249475e-04    1.880356e+05    1.880289e+05    5.244689e-03    1.880356e+05    6.756386e+00
   8.294991e-04    1.864850e+05    1.864782e+05    5.244689e-03    1.864850e+05    6.766368e+00
   8.340758e-04    1.849471e+05    1.849404e+05    5.244689e-03    1.849471e+05    6.740951e+00
   8.386779e-04    1.834219e+05    1.834152e+05    5.244689e-03    1.834219e+05    6.725204e+00
   8.433053e-04    1.819093e+05    1.819025e+05    5.244689e-03    1.819093e+05    6.712903e+00
   8.479582e-04    1.804090e+05    1.804023e+05    5.244689e-03    1.804090e+05    6.682080e+00
   8.526368e-04    1.789212e+05    1.789145e+05    5.244689e-03    1.789212e+05    6.678893e+00
   8.573412e-04    1.774455e+05    1.774389e+05    5.244689e-03    1.774455e+05    6.612712e+00
   8.620716e-04    1.759821e+05    1.759754e+05    5.244689e-03    1.759821e+05    6.652883e+00
   8.668280e-04    1.745306e+05    1.745240e+05    5.244689e-03    1.745306e+05    6.609991e+00
   8.716108e-04    1.730911e+05    1.730845e+05    5.244689e-03    1.730911e+05    6.616144e+00
   8.764199e-04    1.716634e+05    1.716569e+05    5.244689e-03    1.716634e+05    6.494094e+00
   8.812555e-04    1.702476e+05    1.702410e+05    5.244689e-03    1.702476e+05    6.577477e+00
   8.861178e-04    1.688433e+05    1.688368e+05    5.244689e-03    1.688433e+05    6.535151e+00
   8.910070e-04    1.674507e+05    1.674441e+05    5.244689e-03    1.674507e+05    6.538851e+00
   8.959231e-04    1.660694e+05    1.660629e+05    5.244689e-03    1.660694e+05    6.469151e+00
   9.008663e-04    1.646996e+05    1.646931e+05    5.244689e-03    1.646995e+05    6.488793e+00
   9.058369e-04    1.633410e+05    1.633345e+05    5.244689e-03    1.633409e+05    6.458556e+00
   9.108348e-04    1.619936e+05    1.619871e+05    5.244689e-03    1.619936e+05    6.448869e+00
   9.158603e-04    1.606572e+05    1.606508e+05    5.244689e-03    1.606572e+05    6.427708e+00
   9.209136e-04    1.593319e+05    1.593255e+05    5.244689e-03    1.593319e+05    6.404064e+00
   9.259947e-04    1.580175e+05    1.580111e+05    5.244689e-03    1.580175e+05    6.393999e+00
   9.311039e-04    1.567139e+05    1.567075e+05    5.244689e-03    1.567139e+05    6.347348e+00
   9.362412e-04    1.554211e+05    1.554147e+05    5.244689e-03    1.554211e+05    6.371816e+00
   9.414069e-04    1.541388e+05    1.541325e+05    5.244689e-03    1.541388e+05    6.334357e+00
   9.466011e-04    1.528672e+05    1.528608e+05    5.244689e-03    1.528672e+05    6.336241e+00
   9.518240e-04    1.516059e+05    1.515996e+05    5.244689e-03    1.516059e+05    6.235962e+00
   9.570757e-04    1.503551e+05    1.503488e+05    5.244689e-03    1.503551e+05    6.303106e+00
   9.623563e-04    1.491146e+05    1.491083e+05    5.244689e-03    1.491146e+05    6.262562e+00
   9.676661e-04    1.478843e+05    1.478780e+05    5.244689e-03    1.478843e+05    6.265875e+00
   9.730052e-04    1.466640e+05    1.466578e+05    5.244689e-03    1.466640e+05    6.192195e+00
   9.783738e-04    1.454539e+05    1.454477e+05    5.244689e-03    1.454539e+05    6.222724e+00
   9.837719e-04    1.442537e+05    1.442475e+05    5.244689e-03    1.442537e+05    6.189421e+00
   9.891999e-04    1.430634e+05    1.430572e+05    5.244689e-03    1.430634e+05    6.184494e+00
   9.946578e-04    1.418829e+05    1.418768e+05    5.244690e-03    1.418829e+05    6.153435e+00
   1.000146e-03    1.407121e+05    1.407060e+05    5.244690e-03    1.407121e+05    6.137545e+00
   1.005664e-03    1.395510e+05    1.395448e+05    5.244690e-03    1.395510e+05    6.120496e+00
   1.011213e-03    1.383993e+05    1.383932e+05    5.244690e-03    1.383993e+05    6.093164e+00
   1.016792e-03    1.372572e+05    1.372511e+05    5.244690e-03    1.372572e+05    6.102013e+00
   1.022402e-03    1.361245e+05    1.361184e+05    5.244690e-03    1.361245e+05    6.070481e+00
   1.028043e-03    1.350011e+05    1.349951e+05    5.244690e-03    1.350011e+05    6.067679e+00
   1.033716e-03    1.338869e+05    1.338809e+05    5.244690e-03    1.338869e+05    5.993506e+00
   1.039419e-03    1.327820e+05    1.327760e+05    5.244690e-03    1.327820e+05    6.039515e+00
   1.045154e-03    1.316861e+05    1.316801e+05    5.244690e-03    1.316861e+05    6.002147e+00
   1.050921e-03    1.305993e+05    1.305932e+05    5.244690e-03    1.305993e+05    6.003981e+00
   1.056719e-03    1.295213e+05    1.295153e+05    5.244690e-03    1.295213e+05    5.924931e+00
   1.062550e-03    1.284523e+05    1.284463e+05    5.244690e-03    1.284523e+05    5.966986e+00
   1.068412e-03    1.273920e+05    1.273861e+05    5.244690e-03    1.273920e+05    5.932604e+00
   1.074307e-03    1.263405e+05    1.263346e+05    5.244690e-03    1.263405e+05    5.930771e+00
   1.080235e-03    1.252976e+05    1.252918e+05    5.244690e-03    1.252976e+05    5.888982e+00
   1.086195e-03    1.242634e+05    1.242575e+05    5.244690e-03    1.242634e+05    5.885847e+00
   1.092188e-03    1.232376e+05    1.232318e+05    5.244690e-03    1.232376e+05    5.862402e+00
   1.098214e-03    1.222203e+05    1.222145e+05    5.244690e-03    1.222203e+05    5.849263e+00
   1.104273e-03    1.212114e+05    1.212055e+05    5.244690e-03    1.212114e+05    5.842089e+00
   1.110366e-03    1.202107e+05    1.202049e+05    5.244690e-03    1.202107e+05    5.817806e+00
   1.116493e-03    1.192183e+05    1.192125e+05    5.244690e-03    1.192183e+05    5.809487e+00
   1.122653e-03    1.182341e+05    1.182283e+05    5.244690e-03    1.182341e+05    5.760371e+00
   1.128847e-03    1.172580e+05    1.172522e+05    5.244690e-03    1.172580e+05    5.785681e+00
   1.135076e-03    1.162899e+05    1.162841e+05    5.244690e-03    1.162899e+05    5.752876e+00
   1.141338e-03    1.153298e+05    1.153240e+05    5.244690e-03    1.153298e+05    5.752208e+00
   1.147636e-03    1.143775e+05    1.143718e+05    5.244690e-03    1.143775e+05    5.669844e+00
   1.153968e-03    1.134332e+05    1.134275e+05    5.244690e-03    1.134332e+05    5.720698e+00
   1.160335e-03    1.124966e+05    1.124909e+05    5.244690e-03    1.124966e+05    5.687162e+00
   1.166737e-03    1.115677e+05    1.115620e+05    5.244690e-03    1.115677e+05    5.686669e+00
   1.173174e-03    1.106464e+05    1.106408e+05    5.244690e-03    1.106464e+05    5.633839e+00
   1.179647e-03    1.097328e+05    1.097271e+05    5.244690e-03    1.097328e+05    5.648137e+00
   1.186156e-03    1.088267e+05    1.088210e+05    5.244690e-03    1.088266e+05    5.620895e+00
   1.192701e-03    1.079280e+05    1.079224e+05    5.244690e-03    1.079280e+05    5.613882e+00
   1.199281e-03    1.070367e+05    1.070311e+05    5.244690e-03    1.070367e+05    5.591452e+00
   1.205898e-03    1.061528e+05    1.061472e+05    5.244690e-03    1.061528e+05    5.575194e+00
   1.212552e-03    1.052761e+05    1.052705e+05    5.244690e-03    1.052761e+05    5.560610e+00
   1.219242e-03    1.044067e+05    1.044011e+05    5.244690e-03    1.044067e+05    5.534730e+00
   1.225969e-03    1.035444e+05    1.035388e+05    5.244690e-03    1.035444e+05    5.540724e+00
   1.232734e-03    1.026892e+05    1.026837e+05    5.244690e-03    1.026892e+05    5.513744e+00
   1.239535e-03    1.018411e+05    1.018356e+05    5.244690e-03    1.018411e+05    5.509308e+00
   1.246374e-03    1.009999e+05    1.009944e+05    5.244690e-03    1.009999e+05    5.450276e+00
   1.253251e-03    1.001657e+05    1.001602e+05    5.244690e-03    1.001657e+05    5.482659e+00
   1.260166e-03    9.933830e+04    9.933285e+04    5.244690e-03    9.933830e+04    5.451846e+00
   1.267119e-03    9.851777e+04    9.851231e+04    5.244690e-03    9.851776e+04    5.450921e+00
   1.274110e-03    9.770392e+04    9.769853e+04    5.244690e-03    9.770392e+04    5.387166e+00
   1.281140e-03    9.689688e+04    9.689145e+04    5.244690e-03    9.689687e+04    5.418070e+00
   1.288209e-03    9.609642e+04    9.609102e+04    5.244690e-03    9.609641e+04    5.389618e+00
   1.295317e-03    9.530257e+04    9.529718e+04    5.244690e-03    9.530257e+04    5.386223e+00
   1.302463e-03    9.451523e+04    9.450988e+04    5.244690e-03    9.451523e+04    5.349084e+00
   1.309650e-03    9.373441e+04    9.372905e+04    5.244690e-03    9.373440e+04    5.347803e+00
   1.316876e-03    9.296000e+04    9.295466e+04    5.244690e-03    9.295999e+04    5.327260e+00
   1.324142e-03    9.219197e+04    9.218665e+04    5.244690e-03    9.219197e+04    5.316097e+00
   1.331448e-03    9.143027e+04    9.142496e+04    5.244690e-03    9.143026e+04    5.303757e+00
   1.338794e-03    9.067483e+04    9.066954e+04    5.244690e-03    9.067483e+04    5.283921e+00
   1.346181e-03    8.992563e+04    8.992035e+04    5.244690e-03    8.992562e+04    5.274530e+00
   1.353608e-03    8.918257e+04    8.917732e+04    5.244690e-03    8.918256e+04    5.241275e+00
   1.361077e-03    8.844567e+04    8.844041e+04    5.244690e-03    8.844567e+04    5.251984e+00
   1.368586e-03    8.771481e+04    8.770957e+04    5.244690e-03    8.771480e+04    5.225586e+00
   1.376137e-03    8.698998e+04    8.698475e+04    5.244690e-03    8.698998e+04    5.222495e+00
   1.383730e-03    8.627107e+04    8.626591e+04    5.244690e-03    8.627107e+04    5.162502e+00
   1.391365e-03    8.555817e+04    8.555297e+04    5.244690e-03    8.555817e+04    5.194612e+00
   1.399042e-03    8.485109e+04    8.484591e+04    5.244690e-03    8.485108e+04    5.167176e+00
   1.406761e-03    8.414985e+04    8.414468e+04    5.244690e-03    8.414985e+04    5.165221e+00
   1.414523e-03    8.345434e+04    8.344922e+04    5.244690e-03    8.345433e+04    5.114241e+00
   1.422327e-03    8.276462e+04    8.275949e+04    5.244690e-03    8.276462e+04    5.132390e+00
   1.430175e-03    8.208055e+04    8.207543e+04    5.244690e-03    8.208054e+04    5.108705e+00
   1.438066e-03    8.140213e+04    8.139702e+04    5.244690e-03    8.140212e+04    5.103140e+00
   1.446001e-03    8.072927e+04    8.072419e+04    5.244690e-03    8.072926e+04    5.073808e+00
   1.453979e-03    8.006197e+04    8.005690e+04    5.244690e-03    8.006196e+04    5.065962e+00
   1.462001e-03    7.940016e+04    7.939511e+04    5.244690e-03    7.940016e+04    5.050455e+00
   1.470068e-03    7.874381e+04    7.873876e+04    5.244690e-03    7.874380e+04    5.036998e+00
   1.478179e-03    7.809286e+04    7.808783e+04    5.244690e-03    7.809286e+04    5.027979e+00
   1.486335e-03    7.744727e+04    7.744225e+04    5.244690e-03    7.744726e+04    5.007503e+00
   1.494536e-03    7.680700e+04    7.680200e+04    5.244690e-03    7.680700e+04    5.000745e+00
   1.502782e-03    7.617199e+04    7.616702e+04    5.244690e-03    7.617198e+04    4.967401e+00
   1.511073e-03    7.554225e+04    7.553726e+04    5.244690e-03    7.554224e+04    4.977175e+00
   1.519411e-03    7.491766e+04    7.491270e+04    5.244690e-03    7.491765e+04    4.952633e+00
   1.527794e-03    7.429823e+04    7.429328e+04    5.244690e-03    7.429823e+04    4.950068e+00
