Model replicates Starrett & Saumon 2014 'A simple method for determining the ionic structure of warm dense matter'
 # {"name":"CS2014_Al", "Z":13, "Zstar":3.080039821575357, "A":27,  "μ_core[AU]": 3.1167943884e-01, "μ_empty[AU]": 3.1168314360e-01, "Te[AU]": 3.675e-02, "Ti[AU]": 3.675e-02, "rs[AU]": 2.991e+00 }
   r[AU]           ne_full[AU]     n_ion[AU]       ne_ext[AU]      ne_PA[AU]       ne_scr[AU]      
   5.000000e-04    4.004993e+05    4.004919e+05    2.633218e-03    4.004993e+05    7.469841e+00
   6.292791e-04    2.835373e+05    2.835306e+05    2.633218e-03    2.835373e+05    6.612563e+00
   7.734068e-04    2.079906e+05    2.079847e+05    2.633218e-03    2.079906e+05    5.929073e+00
   9.323830e-04    1.570390e+05    1.570336e+05    2.633218e-03    1.570390e+05    5.346809e+00
   1.106208e-03    1.214368e+05    1.214319e+05    2.633219e-03    1.214368e+05    4.864862e+00
   1.294881e-03    9.581437e+04    9.580983e+04    2.633219e-03    9.581437e+04    4.541611e+00
   1.498403e-03    7.690695e+04    7.690274e+04    2.633219e-03    7.690695e+04    4.213756e+00
   1.716774e-03    6.265216e+04    6.264824e+04    2.633219e-03    6.265216e+04    3.912926e+00
   1.949993e-03    5.170325e+04    5.169958e+04    2.633220e-03    5.170325e+04    3.666523e+00
   2.198061e-03    4.315535e+04    4.315191e+04    2.633220e-03    4.315535e+04    3.439944e+00
   2.460977e-03    3.638524e+04    3.638197e+04    2.633221e-03    3.638524e+04    3.262230e+00
   2.738742e-03    3.095403e+04    3.095095e+04    2.633221e-03    3.095403e+04    3.081081e+00
   3.031356e-03    2.654676e+04    2.654383e+04    2.633222e-03    2.654676e+04    2.926715e+00
   3.338818e-03    2.293334e+04    2.293054e+04    2.633223e-03    2.293333e+04    2.790764e+00
   3.661129e-03    1.994298e+04    1.994032e+04    2.633224e-03    1.994297e+04    2.658551e+00
   3.998288e-03    1.744715e+04    1.744461e+04    2.633225e-03    1.744715e+04    2.536317e+00
   4.350296e-03    1.534787e+04    1.534543e+04    2.633227e-03    1.534786e+04    2.431862e+00
   4.717153e-03    1.356950e+04    1.356716e+04    2.633228e-03    1.356949e+04    2.333491e+00
   5.098858e-03    1.205313e+04    1.205088e+04    2.633230e-03    1.205313e+04    2.241766e+00
   5.495412e-03    1.075234e+04    1.075017e+04    2.633232e-03    1.075234e+04    2.160600e+00
   5.906814e-03    9.630217e+03    9.628131e+03    2.633234e-03    9.630214e+03    2.083387e+00
   6.333065e-03    8.657187e+03    8.655175e+03    2.633236e-03    8.657185e+03    2.009078e+00
   6.774164e-03    7.809334e+03    7.807392e+03    2.633239e-03    7.809331e+03    1.939023e+00
   7.230112e-03    7.067238e+03    7.065359e+03    2.633242e-03    7.067235e+03    1.876030e+00
   7.700909e-03    6.414958e+03    6.413140e+03    2.633245e-03    6.414955e+03    1.815014e+00
   8.186554e-03    5.839358e+03    5.837594e+03    2.633249e-03    5.839355e+03    1.761042e+00
   8.687048e-03    5.329527e+03    5.327818e+03    2.633252e-03    5.329524e+03    1.705451e+00
   9.202390e-03    4.876368e+03    4.874708e+03    2.633257e-03    4.876365e+03    1.656900e+00
   9.732581e-03    4.472254e+03    4.470643e+03    2.633261e-03    4.472252e+03    1.609027e+00
   1.027762e-02    4.110762e+03    4.109194e+03    2.633266e-03    4.110759e+03    1.564653e+00
   1.083751e-02    3.786440e+03    3.784916e+03    2.633272e-03    3.786437e+03    1.521008e+00
   1.141225e-02    3.494659e+03    3.493175e+03    2.633277e-03    3.494657e+03    1.481345e+00
   1.200183e-02    3.231454e+03    3.230009e+03    2.633284e-03    3.231452e+03    1.442853e+00
   1.260627e-02    2.993432e+03    2.992023e+03    2.633290e-03    2.993430e+03    1.406806e+00
   1.322555e-02    2.777673e+03    2.776298e+03    2.633298e-03    2.777670e+03    1.372104e+00
   1.385968e-02    2.581650e+03    2.580308e+03    2.633306e-03    2.581647e+03    1.339056e+00
   1.450866e-02    2.403172e+03    2.401862e+03    2.633314e-03    2.403170e+03    1.307596e+00
   1.517249e-02    2.240333e+03    2.239053e+03    2.633323e-03    2.240330e+03    1.277336e+00
   1.585116e-02    2.091466e+03    2.090215e+03    2.633333e-03    2.091463e+03    1.247865e+00
   1.654469e-02    1.955120e+03    1.953897e+03    2.633343e-03    1.955118e+03    1.220460e+00
   1.725306e-02    1.830017e+03    1.828821e+03    2.633354e-03    1.830015e+03    1.193722e+00
   1.797629e-02    1.715031e+03    1.713861e+03    2.633365e-03    1.715029e+03    1.167707e+00
   1.871436e-02    1.609170e+03    1.608024e+03    2.633378e-03    1.609167e+03    1.143259e+00
   1.946728e-02    1.511550e+03    1.510428e+03    2.633391e-03    1.511547e+03    1.119210e+00
   2.023505e-02    1.421397e+03    1.420298e+03    2.633405e-03    1.421394e+03    1.096570e+00
   2.101766e-02    1.338018e+03    1.336940e+03    2.633419e-03    1.338015e+03    1.074540e+00
   2.181513e-02    1.260794e+03    1.259738e+03    2.633435e-03    1.260792e+03    1.053539e+00
   2.262744e-02    1.189175e+03    1.188140e+03    2.633451e-03    1.189172e+03    1.032863e+00
   2.345461e-02    1.122665e+03    1.121650e+03    2.633469e-03    1.122663e+03    1.013046e+00
   2.429662e-02    1.060824e+03    1.059828e+03    2.633487e-03    1.060822e+03    9.940877e-01
   2.515348e-02    1.003255e+03    1.002276e+03    2.633506e-03    1.003253e+03    9.760326e-01
   2.602519e-02    9.495992e+02    9.486388e+02    2.633527e-03    9.495965e+02    9.577607e-01
   2.691174e-02    8.995356e+02    8.985920e+02    2.633548e-03    8.995329e+02    9.409687e-01
   2.781315e-02    8.527708e+02    8.518438e+02    2.633571e-03    8.527681e+02    9.243494e-01
   2.872940e-02    8.090418e+02    8.081310e+02    2.633594e-03    8.090392e+02    9.081832e-01
   2.966051e-02    7.681107e+02    7.672158e+02    2.633619e-03    7.681081e+02    8.923027e-01
   3.060646e-02    7.297613e+02    7.288814e+02    2.633645e-03    7.297586e+02    8.772223e-01
   3.156726e-02    6.937959e+02    6.929309e+02    2.633672e-03    6.937933e+02    8.624435e-01
   3.254291e-02    6.600354e+02    6.591844e+02    2.633701e-03    6.600327e+02    8.483379e-01
   3.353340e-02    6.283151e+02    6.274780e+02    2.633731e-03    6.283125e+02    8.344306e-01
   3.453875e-02    5.984872e+02    5.976636e+02    2.633762e-03    5.984845e+02    8.209372e-01
   3.555894e-02    5.704151e+02    5.696047e+02    2.633794e-03    5.704125e+02    8.078060e-01
   3.659399e-02    5.439739e+02    5.431764e+02    2.633828e-03    5.439713e+02    7.948323e-01
   3.764388e-02    5.190497e+02    5.182644e+02    2.633864e-03    5.190471e+02    7.827163e-01
   3.870862e-02    4.955357e+02    4.947626e+02    2.633901e-03    4.955331e+02    7.705387e-01
   3.978821e-02    4.733371e+02    4.725756e+02    2.633940e-03    4.733344e+02    7.588118e-01
   4.088265e-02    4.523649e+02    4.516149e+02    2.633980e-03    4.523623e+02    7.473999e-01
   4.199193e-02    4.325376e+02    4.317986e+02    2.634022e-03    4.325349e+02    7.363015e-01
   4.311607e-02    4.137797e+02    4.130516e+02    2.634065e-03    4.137771e+02    7.254991e-01
   4.425505e-02    3.960211e+02    3.953036e+02    2.634111e-03    3.960185e+02    7.149102e-01
   4.540888e-02    3.791983e+02    3.784911e+02    2.634158e-03    3.791957e+02    7.045675e-01
   4.657756e-02    3.632519e+02    3.625549e+02    2.634207e-03    3.632493e+02    6.943989e-01
   4.776109e-02    3.481272e+02    3.474400e+02    2.634258e-03    3.481246e+02    6.845775e-01
   4.895947e-02    3.337734e+02    3.330957e+02    2.634311e-03    3.337708e+02    6.751024e-01
   5.017269e-02    3.201425e+02    3.194743e+02    2.634365e-03    3.201399e+02    6.655851e-01
   5.140077e-02    3.071913e+02    3.065321e+02    2.634422e-03    3.071887e+02    6.565602e-01
   5.264369e-02    2.948792e+02    2.942289e+02    2.634481e-03    2.948765e+02    6.476431e-01
   5.390146e-02    2.831682e+02    2.825267e+02    2.634542e-03    2.831656e+02    6.388365e-01
   5.517408e-02    2.720233e+02    2.713904e+02    2.634606e-03    2.720207e+02    6.302292e-01
   5.646155e-02    2.614115e+02    2.607871e+02    2.634671e-03    2.614089e+02    6.218623e-01
   5.776387e-02    2.513023e+02    2.506859e+02    2.634739e-03    2.512996e+02    6.137364e-01
   5.908104e-02    2.416672e+02    2.410588e+02    2.634809e-03    2.416646e+02    6.058122e-01
   6.041305e-02    2.324798e+02    2.318791e+02    2.634882e-03    2.324772e+02    5.980349e-01
   6.175992e-02    2.237151e+02    2.231221e+02    2.634957e-03    2.237124e+02    5.903332e-01
   6.312163e-02    2.153498e+02    2.147644e+02    2.635034e-03    2.153472e+02    5.827997e-01
   6.449819e-02    2.073621e+02    2.067840e+02    2.635114e-03    2.073595e+02    5.755336e-01
   6.588960e-02    1.997317e+02    1.991608e+02    2.635197e-03    1.997291e+02    5.682653e-01
   6.729586e-02    1.924398e+02    1.918759e+02    2.635282e-03    1.924372e+02    5.612743e-01
   6.871696e-02    1.854683e+02    1.849113e+02    2.635370e-03    1.854657e+02    5.543904e-01
   7.015292e-02    1.788005e+02    1.782503e+02    2.635461e-03    1.787978e+02    5.475640e-01
   7.160372e-02    1.724203e+02    1.718768e+02    2.635555e-03    1.724177e+02    5.409273e-01
   7.306937e-02    1.663134e+02    1.657763e+02    2.635651e-03    1.663107e+02    5.344526e-01
   7.454987e-02    1.604657e+02    1.599349e+02    2.635751e-03    1.604630e+02    5.280880e-01
   7.604522e-02    1.548641e+02    1.543396e+02    2.635854e-03    1.548615e+02    5.218308e-01
   7.755542e-02    1.494964e+02    1.489781e+02    2.635959e-03    1.494938e+02    5.156803e-01
   7.908047e-02    1.443509e+02    1.438386e+02    2.636068e-03    1.443483e+02    5.096396e-01
   8.062036e-02    1.394167e+02    1.389103e+02    2.636180e-03    1.394140e+02    5.037139e-01
   8.217511e-02    1.346836e+02    1.341830e+02    2.636296e-03    1.346809e+02    4.979541e-01
   8.374470e-02    1.301418e+02    1.296469e+02    2.636414e-03    1.301392e+02    4.922554e-01
   8.532914e-02    1.257822e+02    1.252930e+02    2.636536e-03    1.257796e+02    4.866131e-01
   8.692843e-02    1.215962e+02    1.211124e+02    2.636662e-03    1.215936e+02    4.811703e-01
   8.854257e-02    1.175755e+02    1.170971e+02    2.636791e-03    1.175728e+02    4.757556e-01
   9.017155e-02    1.137124e+02    1.132393e+02    2.636924e-03    1.137098e+02    4.704472e-01
   9.181539e-02    1.099998e+02    1.095319e+02    2.637060e-03    1.099971e+02    4.652254e-01
   9.347407e-02    1.064306e+02    1.059679e+02    2.637200e-03    1.064280e+02    4.601172e-01
   9.514761e-02    1.029984e+02    1.025407e+02    2.637344e-03    1.029957e+02    4.550649e-01
   9.683599e-02    9.969675e+01    9.924400e+01    2.637491e-03    9.969411e+01    4.501139e-01
   9.853922e-02    9.652003e+01    9.607215e+01    2.637643e-03    9.651739e+01    4.452434e-01
   1.002573e-01    9.346265e+01    9.301956e+01    2.637799e-03    9.346001e+01    4.404579e-01
   1.019902e-01    9.051936e+01    9.008096e+01    2.637958e-03    9.051672e+01    4.357596e-01
   1.037380e-01    8.768511e+01    8.725135e+01    2.638122e-03    8.768247e+01    4.311199e-01
   1.055006e-01    8.495506e+01    8.452588e+01    2.638290e-03    8.495242e+01    4.265400e-01
   1.072781e-01    8.232484e+01    8.190014e+01    2.638462e-03    8.232220e+01    4.220615e-01
   1.090704e-01    7.979017e+01    7.936987e+01    2.638639e-03    7.978753e+01    4.176670e-01
   1.108776e-01    7.734698e+01    7.693101e+01    2.638820e-03    7.734434e+01    4.133304e-01
   1.126996e-01    7.499138e+01    7.457969e+01    2.639006e-03    7.498875e+01    4.090573e-01
   1.145365e-01    7.271966e+01    7.231217e+01    2.639196e-03    7.271702e+01    4.048475e-01
   1.163882e-01    7.052832e+01    7.012498e+01    2.639391e-03    7.052568e+01    4.007029e-01
   1.182547e-01    6.841411e+01    6.801484e+01    2.639590e-03    6.841147e+01    3.966239e-01
   1.201362e-01    6.637384e+01    6.597859e+01    2.639795e-03    6.637120e+01    3.926069e-01
   1.220324e-01    6.440449e+01    6.401320e+01    2.640005e-03    6.440185e+01    3.886470e-01
   1.239435e-01    6.250315e+01    6.211578e+01    2.640220e-03    6.250051e+01    3.847378e-01
   1.258695e-01    6.066706e+01    6.028354e+01    2.640440e-03    6.066442e+01    3.808848e-01
   1.278103e-01    5.889371e+01    5.851395e+01    2.640665e-03    5.889106e+01    3.771160e-01
   1.297660e-01    5.718056e+01    5.680451e+01    2.640895e-03    5.717792e+01    3.734030e-01
   1.317365e-01    5.552522e+01    5.515286e+01    2.641131e-03    5.552258e+01    3.697193e-01
   1.337218e-01    5.392543e+01    5.355670e+01    2.641372e-03    5.392279e+01    3.660851e-01
   1.357220e-01    5.237900e+01    5.201382e+01    2.641618e-03    5.237636e+01    3.625425e-01
   1.377371e-01    5.088387e+01    5.052222e+01    2.641870e-03    5.088123e+01    3.590082e-01
   1.397670e-01    4.943812e+01    4.907993e+01    2.642127e-03    4.943548e+01    3.555515e-01
   1.418117e-01    4.803983e+01    4.768505e+01    2.642390e-03    4.803718e+01    3.521327e-01
   1.438713e-01    4.668719e+01    4.633579e+01    2.642659e-03    4.668455e+01    3.487589e-01
   1.459457e-01    4.537844e+01    4.503036e+01    2.642934e-03    4.537580e+01    3.454378e-01
   1.480350e-01    4.411197e+01    4.376716e+01    2.643215e-03    4.410933e+01    3.421630e-01
   1.501392e-01    4.288619e+01    4.254463e+01    2.643501e-03    4.288355e+01    3.389176e-01
   1.522582e-01    4.169964e+01    4.136125e+01    2.643794e-03    4.169700e+01    3.357464e-01
   1.543920e-01    4.055080e+01    4.021558e+01    2.644093e-03    4.054816e+01    3.325848e-01
   1.565407e-01    3.943832e+01    3.910619e+01    2.644398e-03    3.943568e+01    3.294869e-01
   1.587042e-01    3.836086e+01    3.803178e+01    2.644710e-03    3.835821e+01    3.264362e-01
   1.608826e-01    3.731715e+01    3.699109e+01    2.645028e-03    3.731450e+01    3.234073e-01
   1.630759e-01    3.630597e+01    3.598292e+01    2.645353e-03    3.630333e+01    3.204117e-01
   1.652839e-01    3.532622e+01    3.500609e+01    2.645684e-03    3.532357e+01    3.174840e-01
   1.675069e-01    3.437669e+01    3.405946e+01    2.646022e-03    3.437405e+01    3.145866e-01
   1.697446e-01    3.345632e+01    3.314195e+01    2.646366e-03    3.345367e+01    3.117209e-01
   1.719973e-01    3.256410e+01    3.225257e+01    2.646718e-03    3.256146e+01    3.088879e-01
   1.742647e-01    3.169906e+01    3.139032e+01    2.647077e-03    3.169641e+01    3.060894e-01
   1.765471e-01    3.086023e+01    3.055425e+01    2.647443e-03    3.085758e+01    3.033260e-01
   1.788442e-01    3.004671e+01    2.974346e+01    2.647817e-03    3.004406e+01    3.005986e-01
   1.811563e-01    2.925760e+01    2.895703e+01    2.648198e-03    2.925495e+01    2.979149e-01
   1.834831e-01    2.849208e+01    2.819417e+01    2.648587e-03    2.848943e+01    2.952624e-01
   1.858249e-01    2.774935e+01    2.745406e+01    2.648984e-03    2.774670e+01    2.926410e-01
   1.881814e-01    2.702863e+01    2.673593e+01    2.649387e-03    2.702598e+01    2.900502e-01
   1.905528e-01    2.632919e+01    2.603904e+01    2.649799e-03    2.632654e+01    2.874954e-01
   1.929391e-01    2.565027e+01    2.536265e+01    2.650218e-03    2.564762e+01    2.849758e-01
   1.953402e-01    2.499121e+01    2.470608e+01    2.650646e-03    2.498856e+01    2.824865e-01
   1.977562e-01    2.435135e+01    2.406868e+01    2.651081e-03    2.434870e+01    2.800259e-01
   2.001870e-01    2.373006e+01    2.344981e+01    2.651524e-03    2.372740e+01    2.775926e-01
   2.026326e-01    2.312671e+01    2.284887e+01    2.651975e-03    2.312405e+01    2.751850e-01
   2.050932e-01    2.254069e+01    2.226524e+01    2.652435e-03    2.253804e+01    2.728023e-01
   2.075685e-01    2.197146e+01    2.169836e+01    2.652903e-03    2.196881e+01    2.704500e-01
   2.100587e-01    2.141849e+01    2.114770e+01    2.653379e-03    2.141584e+01    2.681388e-01
   2.125638e-01    2.088124e+01    2.061273e+01    2.653864e-03    2.087858e+01    2.658476e-01
   2.150837e-01    2.035918e+01    2.009295e+01    2.654358e-03    2.035653e+01    2.635749e-01
   2.176184e-01    1.985184e+01    1.958786e+01    2.654860e-03    1.984919e+01    2.613318e-01
   2.201680e-01    1.935875e+01    1.909697e+01    2.655372e-03    1.935610e+01    2.591263e-01
   2.227325e-01    1.887945e+01    1.861986e+01    2.655894e-03    1.887680e+01    2.569343e-01
   2.253118e-01    1.841351e+01    1.815609e+01    2.656425e-03    1.841085e+01    2.547660e-01
   2.279059e-01    1.796052e+01    1.770523e+01    2.656965e-03    1.795786e+01    2.526348e-01
   2.305149e-01    1.752004e+01    1.726687e+01    2.657515e-03    1.751739e+01    2.505129e-01
   2.331387e-01    1.709170e+01    1.684062e+01    2.658074e-03    1.708905e+01    2.484272e-01
   2.357774e-01    1.667512e+01    1.642610e+01    2.658642e-03    1.667246e+01    2.463603e-01
   2.384310e-01    1.626994e+01    1.602297e+01    2.659220e-03    1.626728e+01    2.443127e-01
   2.410994e-01    1.587581e+01    1.563085e+01    2.659808e-03    1.587315e+01    2.422960e-01
   2.437826e-01    1.549237e+01    1.524942e+01    2.660406e-03    1.548971e+01    2.402908e-01
   2.464807e-01    1.511931e+01    1.487833e+01    2.661013e-03    1.511665e+01    2.383207e-01
   2.491936e-01    1.475630e+01    1.451728e+01    2.661631e-03    1.475364e+01    2.363602e-01
   2.519214e-01    1.440305e+01    1.416596e+01    2.662259e-03    1.440039e+01    2.344314e-01
   2.546640e-01    1.405927e+01    1.382409e+01    2.662897e-03    1.405660e+01    2.325165e-01
   2.574215e-01    1.372465e+01    1.349137e+01    2.663547e-03    1.372199e+01    2.306248e-01
   2.601938e-01    1.339894e+01    1.316752e+01    2.664209e-03    1.339627e+01    2.287560e-01
   2.629810e-01    1.308184e+01    1.285228e+01    2.664880e-03    1.307918e+01    2.268996e-01
   2.657830e-01    1.277314e+01    1.254540e+01    2.665563e-03    1.277047e+01    2.250739e-01
   2.685999e-01    1.247255e+01    1.224663e+01    2.666257e-03    1.246989e+01    2.232597e-01
   2.714316e-01    1.217986e+01    1.195573e+01    2.666961e-03    1.217719e+01    2.214647e-01
   2.742782e-01    1.189482e+01    1.167246e+01    2.667677e-03    1.189216e+01    2.196958e-01
   2.771396e-01    1.161721e+01    1.139660e+01    2.668403e-03    1.161454e+01    2.179387e-01
   2.800159e-01    1.134680e+01    1.112794e+01    2.669141e-03    1.134414e+01    2.162002e-01
   2.829070e-01    1.108342e+01    1.086626e+01    2.669891e-03    1.108075e+01    2.144856e-01
   2.858130e-01    1.082683e+01    1.061137e+01    2.670652e-03    1.082415e+01    2.127852e-01
   2.887338e-01    1.057684e+01    1.036307e+01    2.671427e-03    1.057416e+01    2.110984e-01
   2.916695e-01    1.033326e+01    1.012115e+01    2.672214e-03    1.033058e+01    2.094339e-01
   2.946200e-01    1.009591e+01    9.885450e+00    2.673013e-03    1.009324e+01    2.077883e-01
   2.975853e-01    9.864619e+00    9.655788e+00    2.673824e-03    9.861946e+00    2.061574e-01
   3.005655e-01    9.639206e+00    9.431991e+00    2.674648e-03    9.636532e+00    2.045409e-01
   3.035606e-01    9.419507e+00    9.213892e+00    2.675484e-03    9.416831e+00    2.029394e-01
   3.065705e-01    9.205356e+00    9.001321e+00    2.676332e-03    9.202680e+00    2.013588e-01
   3.095953e-01    8.996602e+00    8.794131e+00    2.677192e-03    8.993925e+00    1.997941e-01
   3.126349e-01    8.793093e+00    8.592170e+00    2.678066e-03    8.790415e+00    1.982448e-01
   3.156893e-01    8.594682e+00    8.395292e+00    2.678953e-03    8.592003e+00    1.967102e-01
   3.187586e-01    8.401226e+00    8.203356e+00    2.679855e-03    8.398546e+00    1.951901e-01
   3.218428e-01    8.212583e+00    8.016218e+00    2.680770e-03    8.209902e+00    1.936846e-01
   3.249418e-01    8.028622e+00    7.833747e+00    2.681699e-03    8.025941e+00    1.921939e-01
   3.280556e-01    7.849218e+00    7.655817e+00    2.682640e-03    7.846536e+00    1.907184e-01
   3.311843e-01    7.674246e+00    7.482304e+00    2.683596e-03    7.671562e+00    1.892583e-01
