# Model replicates Starrett & Saumon 2014 'A simple method for determining the ionic structure of warm dense matter'
# Convergence: Err(φ)=5.748e-11, Err(n_e)=4.058e-12, Err(IET)=9.892e-13, Q_net=-5.856e-10
# {"name":"CS2014_Al", "Z":13, "Zstar":2.987062764070788, "A":26.981538,  "μ[AU]": 2.1771409526e-01, "Te[AU]": 1.837e-01, "Ti[AU]": 1.837e-01, "rs[AU]": 2.990e+00 }
   r[AU]           ne_full[AU]     n_ion[AU]       ne_ext[AU]      ne_PA[AU]       ne_scr[AU]      
   1.000000e-04    4.483065e+06    4.483049e+06    5.382832e-03    4.483065e+06    1.585490e+01
   1.006327e-04    4.440857e+06    4.440843e+06    5.382832e-03    4.440857e+06    1.419987e+01
   1.012695e-04    4.399049e+06    4.399035e+06    5.382832e-03    4.399049e+06    1.492806e+01
   1.019102e-04    4.357632e+06    4.357620e+06    5.382832e-03    4.357632e+06    1.285471e+01
   1.025550e-04    4.316609e+06    4.316594e+06    5.382832e-03    4.316609e+06    1.501830e+01
   1.032039e-04    4.275970e+06    4.275955e+06    5.382832e-03    4.275970e+06    1.417996e+01
   1.038569e-04    4.235713e+06    4.235699e+06    5.382832e-03    4.235713e+06    1.432671e+01
   1.045141e-04    4.195835e+06    4.195822e+06    5.382832e-03    4.195835e+06    1.340989e+01
   1.051753e-04    4.156334e+06    4.156320e+06    5.382832e-03    4.156334e+06    1.433503e+01
   1.058408e-04    4.117204e+06    4.117190e+06    5.382832e-03    4.117204e+06    1.425375e+01
   1.065105e-04    4.078441e+06    4.078428e+06    5.382832e-03    4.078441e+06    1.362843e+01
   1.071844e-04    4.040045e+06    4.040031e+06    5.382832e-03    4.040045e+06    1.378360e+01
   1.078626e-04    4.002009e+06    4.001995e+06    5.382832e-03    4.002009e+06    1.378661e+01
   1.085451e-04    3.964332e+06    3.964318e+06    5.382832e-03    3.964332e+06    1.427144e+01
   1.092319e-04    3.927008e+06    3.926995e+06    5.382832e-03    3.927008e+06    1.284184e+01
   1.099230e-04    3.890038e+06    3.890024e+06    5.382832e-03    3.890038e+06    1.398871e+01
   1.106185e-04    3.853414e+06    3.853401e+06    5.382832e-03    3.853414e+06    1.336521e+01
   1.113184e-04    3.817136e+06    3.817122e+06    5.382832e-03    3.817136e+06    1.414984e+01
   1.120228e-04    3.781197e+06    3.781185e+06    5.382832e-03    3.781197e+06    1.198073e+01
   1.127316e-04    3.745601e+06    3.745587e+06    5.382832e-03    3.745601e+06    1.405401e+01
   1.134449e-04    3.710336e+06    3.710323e+06    5.382832e-03    3.710336e+06    1.305932e+01
   1.141626e-04    3.675405e+06    3.675391e+06    5.382832e-03    3.675405e+06    1.390665e+01
   1.148850e-04    3.640800e+06    3.640789e+06    5.382832e-03    3.640800e+06    1.152949e+01
   1.156119e-04    3.606526e+06    3.606512e+06    5.382832e-03    3.606526e+06    1.398328e+01
   1.163434e-04    3.572570e+06    3.572557e+06    5.382832e-03    3.572570e+06    1.285382e+01
   1.170795e-04    3.538936e+06    3.538923e+06    5.382832e-03    3.538936e+06    1.355573e+01
   1.178203e-04    3.505616e+06    3.505604e+06    5.382832e-03    3.505616e+06    1.129645e+01
   1.185658e-04    3.472614e+06    3.472600e+06    5.382832e-03    3.472614e+06    1.379376e+01
   1.193160e-04    3.439919e+06    3.439906e+06    5.382832e-03    3.439919e+06    1.273848e+01
   1.200710e-04    3.407533e+06    3.407520e+06    5.382832e-03    3.407533e+06    1.310750e+01
   1.208307e-04    3.375451e+06    3.375439e+06    5.382832e-03    3.375451e+06    1.175208e+01
   1.215952e-04    3.343673e+06    3.343660e+06    5.382832e-03    3.343673e+06    1.326349e+01
   1.223646e-04    3.312193e+06    3.312180e+06    5.382832e-03    3.312193e+06    1.270473e+01
   1.231388e-04    3.281009e+06    3.280997e+06    5.382832e-03    3.281009e+06    1.257678e+01
   1.239179e-04    3.250119e+06    3.250107e+06    5.382832e-03    3.250119e+06    1.210716e+01
   1.247020e-04    3.219520e+06    3.219507e+06    5.382832e-03    3.219520e+06    1.271903e+01
   1.254910e-04    3.189209e+06    3.189196e+06    5.382832e-03    3.189209e+06    1.274033e+01
   1.262850e-04    3.159182e+06    3.159170e+06    5.382832e-03    3.159182e+06    1.197107e+01
   1.270841e-04    3.129439e+06    3.129427e+06    5.382832e-03    3.129439e+06    1.232543e+01
   1.278882e-04    3.099976e+06    3.099964e+06    5.382832e-03    3.099976e+06    1.228028e+01
   1.286973e-04    3.070791e+06    3.070778e+06    5.382832e-03    3.070791e+06    1.272943e+01
   1.295116e-04    3.041878e+06    3.041867e+06    5.382832e-03    3.041878e+06    1.130091e+01
   1.303311e-04    3.013240e+06    3.013228e+06    5.382832e-03    3.013240e+06    1.242056e+01
   1.311557e-04    2.984870e+06    2.984859e+06    5.382832e-03    2.984870e+06    1.193939e+01
   1.319856e-04    2.956769e+06    2.956756e+06    5.382832e-03    2.956769e+06    1.256749e+01
   1.328207e-04    2.928929e+06    2.928919e+06    5.382832e-03    2.928929e+06    1.057149e+01
   1.336611e-04    2.901355e+06    2.901343e+06    5.382832e-03    2.901355e+06    1.240253e+01
   1.345068e-04    2.874038e+06    2.874027e+06    5.382832e-03    2.874038e+06    1.168497e+01
   1.353579e-04    2.846980e+06    2.846968e+06    5.382832e-03    2.846980e+06    1.231131e+01
   1.362143e-04    2.820174e+06    2.820164e+06    5.382832e-03    2.820174e+06    1.006656e+01
   1.370762e-04    2.793624e+06    2.793612e+06    5.382832e-03    2.793624e+06    1.228592e+01
   1.379435e-04    2.767321e+06    2.767310e+06    5.382832e-03    2.767321e+06    1.150939e+01
   1.388163e-04    2.741267e+06    2.741255e+06    5.382832e-03    2.741267e+06    1.198002e+01
   1.396946e-04    2.715457e+06    2.715446e+06    5.382832e-03    2.715457e+06    1.040269e+01
   1.405785e-04    2.689892e+06    2.689880e+06    5.382832e-03    2.689892e+06    1.207983e+01
   1.414680e-04    2.664566e+06    2.664555e+06    5.382832e-03    2.664566e+06    1.140403e+01
   1.423631e-04    2.639479e+06    2.639468e+06    5.382832e-03    2.639479e+06    1.157381e+01
   1.432639e-04    2.614628e+06    2.614617e+06    5.382832e-03    2.614628e+06    1.072914e+01
   1.441703e-04    2.590012e+06    2.590000e+06    5.382832e-03    2.590012e+06    1.172163e+01
   1.450825e-04    2.565626e+06    2.565615e+06    5.382832e-03    2.565626e+06    1.136355e+01
   1.460005e-04    2.541470e+06    2.541459e+06    5.382832e-03    2.541470e+06    1.110437e+01
   1.469243e-04    2.517542e+06    2.517531e+06    5.382832e-03    2.517542e+06    1.094138e+01
   1.478539e-04    2.493839e+06    2.493828e+06    5.382832e-03    2.493839e+06    1.128646e+01
   1.487894e-04    2.470359e+06    2.470348e+06    5.382832e-03    2.470359e+06    1.137840e+01
   1.497309e-04    2.447100e+06    2.447089e+06    5.382832e-03    2.447100e+06    1.057878e+01
   1.506783e-04    2.424060e+06    2.424049e+06    5.382832e-03    2.424060e+06    1.105134e+01
   1.516316e-04    2.401237e+06    2.401226e+06    5.382832e-03    2.401237e+06    1.093222e+01
   1.525911e-04    2.378629e+06    2.378618e+06    5.382832e-03    2.378629e+06    1.137940e+01
   1.535565e-04    2.356233e+06    2.356223e+06    5.382832e-03    2.356233e+06    1.000921e+01
   1.545281e-04    2.334049e+06    2.334038e+06    5.382832e-03    2.334049e+06    1.106767e+01
   1.555059e-04    2.312073e+06    2.312063e+06    5.382832e-03    2.312073e+06    1.065272e+01
   1.564898e-04    2.290305e+06    2.290294e+06    5.382832e-03    2.290305e+06    1.119795e+01
   1.574799e-04    2.268739e+06    2.268730e+06    5.382832e-03    2.268739e+06    9.396453e+00
   1.584764e-04    2.247380e+06    2.247369e+06    5.382832e-03    2.247380e+06    1.099894e+01
   1.594791e-04    2.226220e+06    2.226209e+06    5.382832e-03    2.226220e+06    1.044491e+01
   1.604882e-04    2.205259e+06    2.205249e+06    5.382832e-03    2.205259e+06    1.094668e+01
   1.615036e-04    2.184495e+06    2.184485e+06    5.382832e-03    2.184495e+06    9.297451e+00
   1.625255e-04    2.163928e+06    2.163917e+06    5.382832e-03    2.163928e+06    1.085664e+01
   1.635538e-04    2.143553e+06    2.143543e+06    5.382832e-03    2.143553e+06    1.029623e+01
   1.645887e-04    2.123371e+06    2.123361e+06    5.382832e-03    2.123371e+06    1.063452e+01
   1.656301e-04    2.103378e+06    2.103368e+06    5.382832e-03    2.103378e+06    9.590201e+00
   1.666781e-04    2.083575e+06    2.083564e+06    5.382832e-03    2.083575e+06    1.064452e+01
   1.677327e-04    2.063957e+06    2.063946e+06    5.382832e-03    2.063957e+06    1.020096e+01
   1.687940e-04    2.044523e+06    2.044513e+06    5.382832e-03    2.044523e+06    1.026739e+01
   1.698620e-04    2.025273e+06    2.025263e+06    5.382832e-03    2.025273e+06    9.788041e+00
   1.709367e-04    2.006204e+06    2.006194e+06    5.382832e-03    2.006204e+06    1.036696e+01
   1.720183e-04    1.987315e+06    1.987305e+06    5.382832e-03    1.987315e+06    1.015643e+01
   1.731067e-04    1.968603e+06    1.968593e+06    5.382832e-03    1.968603e+06    9.855843e+00
   1.742020e-04    1.950067e+06    1.950057e+06    5.382832e-03    1.950067e+06    9.899895e+00
   1.753042e-04    1.931706e+06    1.931696e+06    5.382832e-03    1.931706e+06    1.002031e+01
   1.764134e-04    1.913518e+06    1.913508e+06    5.382832e-03    1.913518e+06    1.015648e+01
   1.775296e-04    1.895501e+06    1.895491e+06    5.382832e-03    1.895501e+06    9.401616e+00
   1.786529e-04    1.877654e+06    1.877644e+06    5.382832e-03    1.877654e+06    9.932896e+00
   1.797833e-04    1.859974e+06    1.859965e+06    5.382832e-03    1.859974e+06    9.735432e+00
   1.809208e-04    1.842462e+06    1.842452e+06    5.382832e-03    1.842462e+06    1.019548e+01
   1.820656e-04    1.825112e+06    1.825104e+06    5.382832e-03    1.825112e+06    8.912862e+00
   1.832175e-04    1.807929e+06    1.807919e+06    5.382832e-03    1.807929e+06    9.895922e+00
   1.843768e-04    1.790905e+06    1.790896e+06    5.382832e-03    1.790905e+06    9.509014e+00
   1.855434e-04    1.774043e+06    1.774033e+06    5.382832e-03    1.774043e+06    1.000807e+01
   1.867174e-04    1.757338e+06    1.757329e+06    5.382832e-03    1.757338e+06    8.727455e+00
   1.878988e-04    1.740792e+06    1.740782e+06    5.382832e-03    1.740792e+06    9.795880e+00
   1.890877e-04    1.724401e+06    1.724391e+06    5.382832e-03    1.724401e+06    9.334896e+00
   1.902841e-04    1.708164e+06    1.708155e+06    5.382832e-03    1.708164e+06    9.764942e+00
   1.914881e-04    1.692079e+06    1.692071e+06    5.382832e-03    1.692079e+06    8.673111e+00
   1.926997e-04    1.676148e+06    1.676138e+06    5.382832e-03    1.676148e+06    9.639919e+00
   1.939189e-04    1.660365e+06    1.660356e+06    5.382832e-03    1.660365e+06    9.208407e+00
   1.951459e-04    1.644732e+06    1.644722e+06    5.382832e-03    1.644732e+06    9.475996e+00
   1.963806e-04    1.629244e+06    1.629235e+06    5.382832e-03    1.629244e+06    8.819111e+00
   1.976232e-04    1.613904e+06    1.613894e+06    5.382832e-03    1.613904e+06    9.432472e+00
   1.988736e-04    1.598707e+06    1.598698e+06    5.382832e-03    1.598707e+06    9.124885e+00
   2.001319e-04    1.583654e+06    1.583644e+06    5.382832e-03    1.583654e+06    9.147353e+00
   2.013982e-04    1.568742e+06    1.568733e+06    5.382832e-03    1.568742e+06    8.926486e+00
   2.026725e-04    1.553970e+06    1.553961e+06    5.382832e-03    1.553970e+06    9.180303e+00
   2.039549e-04    1.539338e+06    1.539329e+06    5.382832e-03    1.539338e+06    9.081163e+00
   2.052454e-04    1.524843e+06    1.524834e+06    5.382832e-03    1.524843e+06    8.785032e+00
   2.065440e-04    1.510485e+06    1.510476e+06    5.382832e-03    1.510485e+06    8.966739e+00
   2.078509e-04    1.496262e+06    1.496253e+06    5.382832e-03    1.496262e+06    8.903744e+00
   2.091660e-04    1.482173e+06    1.482164e+06    5.382832e-03    1.482173e+06    9.069174e+00
   2.104894e-04    1.468216e+06    1.468208e+06    5.382832e-03    1.468216e+06    8.391053e+00
   2.118213e-04    1.454392e+06    1.454383e+06    5.382832e-03    1.454392e+06    8.947273e+00
   2.131615e-04    1.440696e+06    1.440688e+06    5.382832e-03    1.440696e+06    8.674705e+00
   2.145102e-04    1.427131e+06    1.427122e+06    5.382832e-03    1.427131e+06    9.100064e+00
   2.158675e-04    1.413692e+06    1.413683e+06    5.382832e-03    1.413692e+06    8.217221e+00
   2.172333e-04    1.400380e+06    1.400372e+06    5.382832e-03    1.400380e+06    8.876166e+00
   2.186078e-04    1.387194e+06    1.387185e+06    5.382832e-03    1.387194e+06    8.490280e+00
   2.199910e-04    1.374132e+06    1.374123e+06    5.382832e-03    1.374132e+06    8.965923e+00
   2.213830e-04    1.361191e+06    1.361183e+06    5.382832e-03    1.361191e+06    8.123487e+00
   2.227837e-04    1.348374e+06    1.348366e+06    5.382832e-03    1.348374e+06    8.756452e+00
   2.241933e-04    1.335677e+06    1.335669e+06    5.382832e-03    1.335677e+06    8.346189e+00
   2.256119e-04    1.323100e+06    1.323091e+06    5.382832e-03    1.323100e+06    8.737182e+00
   2.270394e-04    1.310640e+06    1.310632e+06    5.382832e-03    1.310640e+06    8.065841e+00
   2.284759e-04    1.298299e+06    1.298291e+06    5.382832e-03    1.298299e+06    8.594480e+00
   2.299215e-04    1.286073e+06    1.286065e+06    5.382832e-03    1.286073e+06    8.239766e+00
   2.313763e-04    1.273963e+06    1.273955e+06    5.382832e-03    1.273963e+06    8.472822e+00
   2.328403e-04    1.261966e+06    1.261958e+06    5.382832e-03    1.261966e+06    8.099319e+00
   2.343135e-04    1.250083e+06    1.250075e+06    5.382832e-03    1.250083e+06    8.394243e+00
   2.357961e-04    1.238311e+06    1.238303e+06    5.382832e-03    1.238311e+06    8.165203e+00
   2.372880e-04    1.226650e+06    1.226642e+06    5.382832e-03    1.226650e+06    8.177360e+00
   2.387894e-04    1.215099e+06    1.215091e+06    5.382832e-03    1.215099e+06    8.138768e+00
   2.403003e-04    1.203657e+06    1.203649e+06    5.382832e-03    1.203657e+06    8.160498e+00
   2.418208e-04    1.192322e+06    1.192314e+06    5.382832e-03    1.192322e+06    8.120794e+00
   2.433508e-04    1.181094e+06    1.181086e+06    5.382832e-03    1.181094e+06    7.857762e+00
   2.448906e-04    1.169972e+06    1.169964e+06    5.382832e-03    1.169972e+06    8.129345e+00
   2.464400e-04    1.158954e+06    1.158946e+06    5.382832e-03    1.158954e+06    7.923515e+00
   2.479993e-04    1.148041e+06    1.148033e+06    5.382832e-03    1.148041e+06    8.159293e+00
   2.495685e-04    1.137229e+06    1.137221e+06    5.382832e-03    1.137229e+06    7.704449e+00
   2.511476e-04    1.126520e+06    1.126512e+06    5.382832e-03    1.126520e+06    8.074994e+00
   2.527367e-04    1.115911e+06    1.115904e+06    5.382832e-03    1.115911e+06    7.736821e+00
   2.543358e-04    1.105403e+06    1.105395e+06    5.382832e-03    1.105403e+06    8.153023e+00
   2.559450e-04    1.094993e+06    1.094985e+06    5.382832e-03    1.094993e+06    7.588776e+00
   2.575645e-04    1.084682e+06    1.084674e+06    5.382832e-03    1.084682e+06    7.981111e+00
   2.591942e-04    1.074467e+06    1.074459e+06    5.382832e-03    1.074467e+06    7.585776e+00
   2.608341e-04    1.064349e+06    1.064341e+06    5.382832e-03    1.064349e+06    8.053734e+00
   2.624845e-04    1.054325e+06    1.054317e+06    5.382832e-03    1.054325e+06    7.505305e+00
   2.641453e-04    1.044396e+06    1.044388e+06    5.382832e-03    1.044396e+06    7.851081e+00
   2.658166e-04    1.034561e+06    1.034553e+06    5.382832e-03    1.034561e+06    7.465607e+00
   2.674985e-04    1.024818e+06    1.024810e+06    5.382832e-03    1.024818e+06    7.836704e+00
   2.691911e-04    1.015167e+06    1.015159e+06    5.382832e-03    1.015167e+06    7.447989e+00
   2.708943e-04    1.005607e+06    1.005599e+06    5.382832e-03    1.005607e+06    7.688767e+00
   2.726083e-04    9.961360e+05    9.961286e+05    5.382832e-03    9.961360e+05    7.375416e+00
   2.743332e-04    9.867551e+05    9.867475e+05    5.382832e-03    9.867551e+05    7.595404e+00
   2.760690e-04    9.774621e+05    9.774547e+05    5.382832e-03    9.774621e+05    7.426434e+00
   2.778157e-04    9.682569e+05    9.682494e+05    5.382832e-03    9.682569e+05    7.498538e+00
   2.795736e-04    9.591381e+05    9.591307e+05    5.382832e-03    9.591381e+05    7.332143e+00
   2.813425e-04    9.501053e+05    9.500979e+05    5.382832e-03    9.501053e+05    7.349828e+00
   2.831226e-04    9.411575e+05    9.411501e+05    5.382832e-03    9.411575e+05    7.418536e+00
   2.849140e-04    9.322939e+05    9.322866e+05    5.382832e-03    9.322938e+05    7.282663e+00
   2.867167e-04    9.235138e+05    9.235064e+05    5.382832e-03    9.235138e+05    7.367866e+00
   2.885309e-04    9.148162e+05    9.148090e+05    5.382832e-03    9.148162e+05    7.194738e+00
   2.903565e-04    9.062008e+05    9.061934e+05    5.382832e-03    9.062008e+05    7.375672e+00
   2.921936e-04    8.976660e+05    8.976589e+05    5.382832e-03    8.976660e+05    7.057706e+00
   2.940424e-04    8.892121e+05    8.892048e+05    5.382832e-03    8.892121e+05    7.364531e+00
   2.959029e-04    8.808373e+05    8.808302e+05    5.382832e-03    8.808373e+05    7.069199e+00
   2.977752e-04    8.725418e+05    8.725345e+05    5.382832e-03    8.725418e+05    7.298557e+00
   2.996593e-04    8.643238e+05    8.643169e+05    5.382832e-03    8.643238e+05    6.906304e+00
   3.015553e-04    8.561839e+05    8.561766e+05    5.382832e-03    8.561839e+05    7.324741e+00
   3.034633e-04    8.481199e+05    8.481129e+05    5.382832e-03    8.481199e+05    6.968276e+00
   3.053834e-04    8.401324e+05    8.401252e+05    5.382832e-03    8.401324e+05    7.190643e+00
   3.073157e-04    8.322195e+05    8.322127e+05    5.382832e-03    8.322195e+05    6.782094e+00
   3.092601e-04    8.243819e+05    8.243746e+05    5.382832e-03    8.243819e+05    7.245573e+00
   3.112169e-04    8.166173e+05    8.166104e+05    5.382832e-03    8.166173e+05    6.891979e+00
   3.131860e-04    8.089263e+05    8.089192e+05    5.382832e-03    8.089262e+05    7.056446e+00
   3.151677e-04    8.013071e+05    8.013004e+05    5.382832e-03    8.013071e+05    6.682672e+00
   3.171618e-04    7.937604e+05    7.937534e+05    5.382832e-03    7.937604e+05    7.044823e+00
   3.191686e-04    7.862842e+05    7.862774e+05    5.382832e-03    7.862842e+05    6.837830e+00
   3.211880e-04    7.788786e+05    7.788717e+05    5.382832e-03    7.788786e+05    6.898163e+00
   3.232203e-04    7.715425e+05    7.715358e+05    5.382832e-03    7.715425e+05    6.668361e+00
   3.252654e-04    7.642758e+05    7.642690e+05    5.382832e-03    7.642758e+05    6.849183e+00
   3.273234e-04    7.570773e+05    7.570705e+05    5.382832e-03    7.570773e+05    6.801419e+00
   3.293945e-04    7.499466e+05    7.499399e+05    5.382832e-03    7.499466e+05    6.718327e+00
   3.314786e-04    7.428830e+05    7.428763e+05    5.382832e-03    7.428830e+05    6.696876e+00
   3.335760e-04    7.358859e+05    7.358792e+05    5.382832e-03    7.358859e+05    6.694063e+00
   3.356866e-04    7.289548e+05    7.289481e+05    5.382832e-03    7.289548e+05    6.762778e+00
   3.378106e-04    7.220886e+05    7.220821e+05    5.382832e-03    7.220886e+05    6.520021e+00
   3.399480e-04    7.152875e+05    7.152808e+05    5.382832e-03    7.152875e+05    6.692541e+00
   3.420990e-04    7.085501e+05    7.085435e+05    5.382832e-03    7.085501e+05    6.564377e+00
   3.442635e-04    7.018764e+05    7.018697e+05    5.382832e-03    7.018764e+05    6.695809e+00
   3.464418e-04    6.952650e+05    6.952586e+05    5.382832e-03    6.952650e+05    6.305201e+00
   3.486338e-04    6.887165e+05    6.887099e+05    5.382832e-03    6.887165e+05    6.657361e+00
   3.508397e-04    6.822292e+05    6.822227e+05    5.382832e-03    6.822292e+05    6.457523e+00
   3.530595e-04    6.758032e+05    6.757966e+05    5.382832e-03    6.758032e+05    6.603515e+00
   3.552934e-04    6.694372e+05    6.694311e+05    5.382832e-03    6.694372e+05    6.168699e+00
   3.575415e-04    6.631320e+05    6.631254e+05    5.382832e-03    6.631320e+05    6.595703e+00
