# All units in [AU] if not specified
{"name":"Al", "Z":13, "Zstar":4.70993796484321, "A":28,  "μ[AU]": 2.685e-01, "T[AU]": 1.838e-02, "rs[AU]": 3.000e+00 }
	 r[AU]  	 n[AU]  	 nf[AU]  	 nb[AU]     n_ion[AU]    (φ_e+φ_ions)[AU]   φtotal[AU]     δVxc/δρ[Au]  
   2.000000e-02    1.465544e+03    2.525985e+00    1.462686e+03    2.392207e-05   -4.254027e+01    6.070264e+02   -8.529549e+00
   2.153336e-02    1.302775e+03    2.428723e+00    1.300055e+03    3.125828e-05   -4.241522e+01    5.608661e+02   -8.205545e+00
   2.318427e-02    1.157521e+03    2.334821e+00    1.154929e+03    3.915694e-05   -4.225915e+01    5.180325e+02   -7.892705e+00
   2.496176e-02    1.027928e+03    2.244158e+00    1.025459e+03    4.766118e-05   -4.207309e+01    4.782902e+02   -7.590616e+00
   2.687552e-02    9.123428e+02    2.156614e+00    9.099891e+02    5.681742e-05   -4.185798e+01    4.414202e+02   -7.298887e+00
   2.893601e-02    8.092802e+02    2.072076e+00    8.070356e+02    6.667564e-05   -4.161470e+01    4.072192e+02   -7.017136e+00
   3.115447e-02    7.174137e+02    1.990433e+00    7.152728e+02    7.728968e-05   -4.134402e+01    3.754983e+02   -6.745001e+00
   3.354302e-02    6.355553e+02    1.911580e+00    6.335128e+02    8.871747e-05   -4.104669e+01    3.460821e+02   -6.482128e+00
   3.611469e-02    5.626430e+02    1.835415e+00    5.606933e+02    1.010214e-04   -4.072338e+01    3.188077e+02   -6.228184e+00
   3.888352e-02    4.977244e+02    1.761842e+00    4.958638e+02    1.142686e-04   -4.037471e+01    2.935239e+02   -5.982843e+00
   4.186463e-02    4.399494e+02    1.690765e+00    4.381728e+02    1.285315e-04   -4.000128e+01    2.700901e+02   -5.745796e+00
   4.507430e-02    3.885557e+02    1.622097e+00    3.868595e+02    1.431769e-04   -3.960363e+01    2.483757e+02   -5.516743e+00
   4.853005e-02    3.428620e+02    1.555750e+00    3.412424e+02    1.266432e-04   -3.918230e+01    2.282596e+02   -5.295400e+00
   5.225074e-02    3.022586e+02    1.491642e+00    3.007120e+02    1.088419e-04   -3.873779e+01    2.096291e+02   -5.081494e+00
   5.625669e-02    2.661995e+02    1.429695e+00    2.647229e+02    8.967573e-05   -3.827059e+01    1.923798e+02   -4.874761e+00
   6.056977e-02    2.341965e+02    1.369832e+00    2.327866e+02    6.904018e-05   -3.778119e+01    1.764140e+02   -4.674948e+00
   6.521352e-02    2.058130e+02    1.311981e+00    2.044669e+02    4.682255e-05   -3.727008e+01    1.616418e+02   -4.481818e+00
   7.021330e-02    1.806578e+02    1.256071e+00    1.793727e+02    2.290154e-05   -3.673777e+01    1.479790e+02   -4.295137e+00
   7.559640e-02    1.583817e+02    1.202038e+00    1.571552e+02    2.853441e-06   -3.618475e+01    1.353478e+02   -4.114688e+00
   8.139221e-02    1.386716e+02    1.149817e+00    1.375012e+02    3.058300e-05   -3.561156e+01    1.236755e+02   -3.940260e+00
   8.763238e-02    1.212480e+02    1.099350e+00    1.201315e+02    6.043852e-05   -3.501876e+01    1.128949e+02   -3.771653e+00
   9.435096e-02    1.058604e+02    1.050576e+00    1.047955e+02    9.258301e-05   -3.440692e+01    1.029432e+02   -3.608675e+00
   1.015846e-01    9.228535e+01    1.003442e+00    9.127006e+01    1.271919e-04   -3.377668e+01    9.376209e+01   -3.451145e+00
   1.093729e-01    8.032244e+01    9.578959e-01    7.935486e+01    1.226106e-04   -3.312869e+01    8.529739e+01   -3.298889e+00
   1.177583e-01    6.979296e+01    9.138869e-01    6.887118e+01    8.249145e-05   -3.246367e+01    7.749862e+01   -3.151742e+00
   1.267866e-01    6.053689e+01    8.713679e-01    5.965913e+01    3.929646e-05   -3.178239e+01    7.031879e+01   -3.009548e+00
   1.365070e-01    5.241126e+01    8.302940e-01    5.157587e+01    7.210188e-06   -3.108566e+01    6.371420e+01   -2.872158e+00
   1.469727e-01    4.528840e+01    7.906223e-01    4.449373e+01    5.728240e-05   -3.037436e+01    5.764410e+01   -2.739432e+00
   1.582408e-01    3.905408e+01    7.523120e-01    3.829863e+01    1.111935e-04   -2.964944e+01    5.207050e+01   -2.611233e+00
   1.703728e-01    3.360649e+01    7.153247e-01    3.288874e+01    1.178269e-04   -2.891189e+01    4.695805e+01   -2.487438e+00
   1.834349e-01    2.885455e+01    6.796236e-01    2.817311e+01    5.533238e-05   -2.816279e+01    4.227372e+01   -2.367923e+00
   1.974984e-01    2.471712e+01    6.451738e-01    2.407060e+01    1.195347e-05   -2.740326e+01    3.798672e+01   -2.252577e+00
   2.126402e-01    2.112173e+01    6.119423e-01    2.050883e+01    8.439798e-05   -2.663452e+01    3.406828e+01   -2.141290e+00
   2.289428e-01    1.800384e+01    5.798976e-01    1.742330e+01    1.246682e-04   -2.585783e+01    3.049157e+01   -2.033961e+00
   2.464954e-01    1.530592e+01    5.490095e-01    1.475651e+01    4.068955e-05   -2.507450e+01    2.723149e+01   -1.930491e+00
   2.653937e-01    1.297679e+01    5.192493e-01    1.245732e+01    4.972757e-05   -2.428593e+01    2.426457e+01   -1.830790e+00
   2.857408e-01    1.097090e+01    4.905898e-01    1.048023e+01    1.399881e-04   -2.349356e+01    2.156888e+01   -1.734768e+00
   3.076479e-01    9.247802e+00    4.630045e-01    8.784811e+00    3.517533e-05   -2.269886e+01    1.912390e+01   -1.642343e+00
   3.312346e-01    7.771578e+00    4.364678e-01    7.335192e+00    7.767318e-05   -2.190336e+01    1.691041e+01   -1.553433e+00
   3.566297e-01    6.510411e+00    4.109552e-01    6.099585e+00    8.789131e-05   -2.110861e+01    1.491044e+01   -1.467962e+00
   3.839717e-01    5.436134e+00    3.864425e-01    5.049845e+00    4.292422e-05   -2.031620e+01    1.310713e+01   -1.385856e+00
   4.134099e-01    4.523859e+00    3.629064e-01    4.161122e+00    1.032958e-04   -1.952771e+01    1.148474e+01   -1.307042e+00
   4.451052e-01    3.751639e+00    3.403233e-01    3.411484e+00    4.834740e-05   -1.874475e+01    1.002849e+01   -1.231452e+00
   4.792304e-01    3.100157e+00    3.186705e-01    2.781650e+00    7.544834e-05   -1.796888e+01    8.724612e+00   -1.159016e+00
   5.159720e-01    2.552434e+00    2.979245e-01    2.254662e+00    1.003396e-04   -1.720169e+01    7.560157e+00   -1.089667e+00
   5.555304e-01    2.093600e+00    2.780617e-01    1.815675e+00    2.542596e-06   -1.644468e+01    6.523045e+00   -1.023338e+00
   5.981217e-01    1.710672e+00    2.590590e-01    1.451734e+00    8.077718e-05   -1.569935e+01    5.602034e+00   -9.599646e-01
   6.439784e-01    1.392312e+00    2.408909e-01    1.151526e+00    1.387295e-04   -1.496711e+01    4.786564e+00   -8.994771e-01
   6.933508e-01    1.128690e+00    2.235323e-01    9.052470e-01    8.807361e-05   -1.424933e+01    4.066850e+00   -8.418101e-01
   7.465085e-01    9.112965e-01    2.069571e-01    7.044139e-01    5.579131e-05   -1.354727e+01    3.433792e+00   -7.868980e-01
   8.037417e-01    7.327845e-01    1.911375e-01    5.417081e-01    4.349433e-05   -1.286209e+01    2.878937e+00   -7.346734e-01
   8.653628e-01    5.869811e-01    1.760600e-01    4.109698e-01    5.295045e-05   -1.219486e+01    2.394407e+00   -6.856379e-01
   9.317083e-01    4.683640e-01    1.616859e-01    3.067166e-01    8.599520e-05   -1.154654e+01    1.972982e+00   -6.393845e-01
   1.003140e+00    3.722860e-01    1.479784e-01    2.243370e-01    1.444445e-04   -1.091796e+01    1.608017e+00   -5.956761e-01
   1.080049e+00    2.948239e-01    1.348988e-01    1.599471e-01    8.609610e-05   -1.030984e+01    1.293333e+00   -5.544507e-01
   1.162854e+00    2.326809e-01    1.224065e-01    1.102905e-01    5.757060e-05   -9.722721e+00    1.023338e+00   -5.156584e-01
   1.252007e+00    1.830909e-01    1.104557e-01    7.264650e-02    1.357077e-04   -9.157034e+00    7.929580e-01   -4.792608e-01
   1.347996e+00    1.437232e-01    9.898576e-02    4.474516e-02    9.342818e-05   -8.613106e+00    5.975062e-01   -4.452156e-01
   1.451344e+00    1.126533e-01    8.792002e-02    2.473812e-02    5.379034e-05   -8.091070e+00    4.328105e-01   -4.135057e-01
   1.562615e+00    8.829167e-02    7.714253e-02    1.115193e-02    9.985149e-05   -7.590915e+00    2.951371e-01   -3.841374e-01
   1.682418e+00    6.932329e-02    6.641616e-02    2.908466e-03    1.042727e-04   -7.112545e+00    1.810978e-01   -3.571338e-01
   1.811405e+00    5.468232e-02    5.468273e-02   -1.741632e-20    6.393924e-05   -6.655690e+00    8.772792e-02   -3.325643e-01
   1.950281e+00    4.351507e-02    4.351476e-02   -2.375703e-19    1.217878e-04   -6.219890e+00    1.248095e-02   -3.105661e-01
   2.099805e+00    3.513012e-02    3.512938e-02   -5.113148e-19    1.227225e-04   -5.804629e+00   -4.691200e-02   -2.913228e-01
   2.260793e+00    2.899599e-02    2.899504e-02   -7.695906e-19    1.743179e-04   -5.409158e+00   -9.229530e-02   -2.751204e-01
   2.434123e+00    2.470420e-02    2.470312e-02   -9.828598e-19    1.429661e-04   -5.032605e+00   -1.252046e-01   -2.623096e-01
   2.620741e+00    2.198488e-02    2.198377e-02   -1.133759e-18    1.749687e-04   -4.673715e+00   -1.466203e-01   -2.533706e-01
   2.821668e+00    2.066933e-02    2.066820e-02   -1.211639e-18    1.157869e-04   -4.331023e+00   -1.571529e-01   -2.487682e-01
   3.037999e+00    2.074085e-02    2.073990e-02   -1.207318e-18    1.621425e-04   -4.002376e+00   -1.565772e-01   -2.490235e-01
   3.270916e+00    2.230490e-02    2.230379e-02   -1.115311e-18    1.295365e-04   -3.685164e+00   -1.440755e-01   -2.544611e-01
   3.521690e+00    2.571975e-02    2.571870e-02   -9.297610e-19    2.576185e-04   -3.375400e+00   -1.173228e-01   -2.654724e-01
   3.791690e+00    3.163159e-02    3.163068e-02   -6.522754e-19    1.337968e-03   -3.067791e+00   -7.257371e-02   -2.823471e-01
   4.082391e+00    4.070535e-02    4.070480e-02   -3.194552e-19    6.775365e-03   -2.758190e+00   -7.114893e-03   -3.044278e-01
   4.395378e+00    5.097226e-02    5.097216e-02   -6.989529e-20    1.485050e-02   -2.461158e+00    6.316068e-02   -3.256309e-01
   4.732363e+00    5.716180e-02    5.716197e-02    1.430981e-25    1.831001e-02   -2.209786e+00    1.039237e-01   -3.370194e-01
   5.095182e+00    5.632106e-02    5.632131e-02   -3.413850e-21    1.586670e-02   -2.019645e+00    9.845083e-02   -3.355239e-01
   5.485819e+00    5.073241e-02    5.073252e-02   -7.407795e-20    1.182058e-02   -1.874852e+00    6.156036e-02   -3.251709e-01
   5.906405e+00    4.421756e-02    4.421756e-02   -2.186401e-19    8.804864e-03   -1.750331e+00    1.733837e-02   -3.120578e-01
   6.359236e+00    3.923491e-02    3.923492e-02   -3.662258e-19    7.174964e-03   -1.628420e+00   -1.748302e-02   -3.010982e-01
   6.846784e+00    3.673275e-02    3.673274e-02   -4.520944e-19    6.577975e-03   -1.500702e+00   -3.533363e-02   -2.952287e-01
   7.371712e+00    3.689782e-02    3.689785e-02   -4.461852e-19    6.937929e-03   -1.364312e+00   -3.414810e-02   -2.956243e-01
   7.936886e+00    3.916889e-02    3.916888e-02   -3.683905e-19    7.877231e-03   -1.222540e+00   -1.795088e-02   -3.009467e-01
   8.545389e+00    4.252508e-02    4.252520e-02   -2.652806e-19    9.437332e-03   -1.082340e+00    5.613475e-03   -3.084353e-01
   9.200545e+00    4.432680e-02    4.432680e-02   -2.157551e-19    1.015662e-02   -9.615351e-01    1.809127e-02   -3.122884e-01
   9.905931e+00    4.314265e-02    4.314258e-02   -2.478450e-19    9.376028e-03   -8.691083e-01    9.903277e-03   -3.097685e-01
   1.066540e+01    4.109354e-02    4.109350e-02   -3.075390e-19    8.494657e-03   -7.899473e-01   -4.385617e-03   -3.052929e-01
   1.148309e+01    4.035947e-02    4.035946e-02   -3.302010e-19    8.256888e-03   -7.083086e-01   -9.542476e-03   -3.036522e-01
   1.236347e+01    4.149873e-02    4.149873e-02   -2.953170e-19    8.754311e-03   -6.196985e-01   -1.547417e-03   -3.061899e-01
   1.331135e+01    4.294246e-02    4.294246e-02   -2.534438e-19    9.315474e-03   -5.347622e-01    8.514403e-03   -3.093378e-01
   1.433191e+01    4.270285e-02    4.270283e-02   -2.602127e-19    9.114549e-03   -4.668842e-01    6.849691e-03   -3.088205e-01
   1.543070e+01    4.203241e-02    4.203239e-02   -2.795342e-19    8.841587e-03   -4.069620e-01    2.180941e-03   -3.073622e-01
   1.661374e+01    4.228535e-02    4.228532e-02   -2.721791e-19    8.971377e-03   -3.452073e-01    3.944105e-03   -3.079142e-01
   1.788748e+01    4.259574e-02    4.259573e-02   -2.632618e-19    9.089995e-03   -2.873271e-01    6.104890e-03   -3.085885e-01
   1.925887e+01    4.221655e-02    4.221654e-02   -2.741712e-19    8.946953e-03   -2.382152e-01    3.464936e-03   -3.077643e-01
   2.073541e+01    4.213232e-02    4.213229e-02   -2.766196e-19    8.936441e-03   -1.907359e-01    2.877580e-03   -3.075805e-01
   2.232515e+01    4.222327e-02    4.222325e-02   -2.739764e-19    8.973378e-03   -1.454579e-01    3.511736e-03   -3.077790e-01
   2.403677e+01    4.211169e-02    4.211165e-02   -2.772207e-19    8.931650e-03   -1.047710e-01    2.733698e-03   -3.075355e-01
   2.587961e+01    4.224854e-02    4.224852e-02   -2.732444e-19    8.975117e-03   -6.530486e-02    3.687697e-03   -3.078340e-01
   2.786375e+01    4.222315e-02    4.222313e-02   -2.739799e-19    8.978486e-03   -2.971183e-02    3.510888e-03   -3.077787e-01
   3.000000e+01    4.172006e-02    4.172003e-02   -2.887286e-19    8.841941e-03    0.000000e+00    0.000000e+00   -3.066773e-01
