# All units in [AU] if not specified
{"name":"Al", "Z":18, "Zstar":0.5028302035395962, "A":49,  "μ[AU]": -1.822e-01, "T[AU]": 4.410e-02, "rs[AU]": 1.390e+01 }
	 r[AU]  	 n[AU]  	 nf[AU]  	 nb[AU]     n_ion[AU]    (φ_e+φ_ions)[AU]   φtotal[AU]     δVxc/δρ[Au]  
    1.00000e-03     2.29857e+05     0.00000e+00     2.29996e+05     0.00000e+00    -8.10953e+01     1.79188e+04    -4.54329e+01
    1.03012e-03     2.19816e+05     0.00000e+00     2.19949e+05     0.00000e+00    -8.10760e+01     1.73924e+04    -4.47639e+01
    1.06116e-03     2.10213e+05     0.00000e+00     2.10340e+05     0.00000e+00    -8.10547e+01     1.68814e+04    -4.41046e+01
    1.09312e-03     2.01028e+05     0.00000e+00     2.01150e+05     0.00000e+00    -8.10314e+01     1.63854e+04    -4.34550e+01
    1.12605e-03     1.92244e+05     0.00000e+00     1.92360e+05     0.00000e+00    -8.10062e+01     1.59039e+04    -4.28150e+01
    1.15997e-03     1.83842e+05     0.00000e+00     1.83954e+05     0.00000e+00    -8.09790e+01     1.54365e+04    -4.21843e+01
    1.19492e-03     1.75807e+05     0.00000e+00     1.75913e+05     0.00000e+00    -8.09500e+01     1.49827e+04    -4.15629e+01
    1.23091e-03     1.68121e+05     0.00000e+00     1.68223e+05     0.00000e+00    -8.09190e+01     1.45422e+04    -4.09505e+01
    1.26799e-03     1.60771e+05    1.13513e-150     1.60869e+05     0.00000e+00    -8.08862e+01     1.41146e+04    -4.03471e+01
    1.30619e-03     1.53741e+05    3.02028e-146     1.53835e+05     0.00000e+00    -8.08516e+01     1.36995e+04    -3.97526e+01
    1.34554e-03     1.47018e+05    5.95849e-142     1.47107e+05     0.00000e+00    -8.08150e+01     1.32966e+04    -3.91668e+01
    1.38607e-03     1.40587e+05    8.79249e-138     1.40673e+05     0.00000e+00    -8.07767e+01     1.29054e+04    -3.85895e+01
    1.42783e-03     1.34437e+05    9.78725e-134     1.34519e+05     0.00000e+00    -8.07365e+01     1.25257e+04    -3.80207e+01
    1.47084e-03     1.28555e+05    8.28628e-130     1.28634e+05     0.00000e+00    -8.06945e+01     1.21571e+04    -3.74602e+01
    1.51515e-03     1.22930e+05    5.37878e-126     1.23005e+05     0.00000e+00    -8.06507e+01     1.17992e+04    -3.69079e+01
    1.56079e-03     1.17550e+05    2.69776e-122     1.17622e+05     0.00000e+00    -8.06051e+01     1.14519e+04    -3.63637e+01
    1.60781e-03     1.12404e+05    1.05340e-118     1.12473e+05     0.00000e+00    -8.05577e+01     1.11147e+04    -3.58275e+01
    1.65625e-03     1.07483e+05    3.22576e-115     1.07549e+05     0.00000e+00    -8.05085e+01     1.07873e+04    -3.52991e+01
    1.70614e-03     1.02777e+05    7.80194e-112     1.02839e+05     0.00000e+00    -8.04576e+01     1.04696e+04    -3.47784e+01
    1.75753e-03     9.82753e+04    1.50072e-108     9.83355e+04     0.00000e+00    -8.04048e+01     1.01611e+04    -3.42653e+01
    1.81048e-03     9.39703e+04    2.31117e-105     9.40279e+04     0.00000e+00    -8.03504e+01     9.86164e+03    -3.37597e+01
    1.86502e-03     8.98531e+04    2.86827e-102     8.99083e+04     0.00000e+00    -8.02941e+01     9.57095e+03    -3.32615e+01
    1.92120e-03     8.59155e+04     2.88671e-99     8.59683e+04     0.00000e+00    -8.02361e+01     9.28877e+03    -3.27706e+01
    1.97908e-03     8.21497e+04     2.37051e-96     8.22002e+04     0.00000e+00    -8.01763e+01     9.01484e+03    -3.22869e+01
    2.03870e-03     7.85482e+04     1.59778e-93     7.85966e+04     0.00000e+00    -8.01147e+01     8.74893e+03    -3.18102e+01
    2.10011e-03     7.51038e+04     8.89071e-91     7.51501e+04     0.00000e+00    -8.00514e+01     8.49080e+03    -3.13405e+01
    2.16337e-03     7.18097e+04     4.10706e-88     7.18540e+04     0.00000e+00    -7.99863e+01     8.24022e+03    -3.08777e+01
    2.22855e-03     6.86593e+04     1.58366e-85     6.87018e+04     0.00000e+00    -7.99195e+01     7.99697e+03    -3.04216e+01
    2.29568e-03     6.56465e+04     5.12418e-83     6.56871e+04     0.00000e+00    -7.98509e+01     7.76084e+03    -2.99721e+01
    2.36483e-03     6.27652e+04     1.39843e-80     6.28041e+04     0.00000e+00    -7.97805e+01     7.53162e+03    -2.95292e+01
    2.43607e-03     6.00096e+04     3.23501e-78     6.00468e+04     0.00000e+00    -7.97084e+01     7.30910e+03    -2.90928e+01
    2.50946e-03     5.73743e+04     6.37415e-76     5.74099e+04     0.00000e+00    -7.96345e+01     7.09310e+03    -2.86627e+01
    2.58506e-03     5.48540e+04     1.07478e-73     5.48882e+04     0.00000e+00    -7.95588e+01     6.88341e+03    -2.82389e+01
    2.66293e-03     5.24438e+04     1.55791e-71     5.24765e+04     0.00000e+00    -7.94813e+01     6.67986e+03    -2.78213e+01
    2.74315e-03     5.01389e+04     1.94989e-69     5.01702e+04     0.00000e+00    -7.94020e+01     6.48227e+03    -2.74097e+01
    2.82578e-03     4.79346e+04     2.11633e-67     4.79645e+04     0.00000e+00    -7.93209e+01     6.29046e+03    -2.70042e+01
    2.91091e-03     4.58266e+04     2.00020e-65     4.58552e+04     0.00000e+00    -7.92381e+01     6.10427e+03    -2.66045e+01
    2.99860e-03     4.38106e+04     1.65285e-63     4.38381e+04     0.00000e+00    -7.91534e+01     5.92352e+03    -2.62107e+01
    3.08893e-03     4.18828e+04     1.19886e-61     4.19091e+04     0.00000e+00    -7.90669e+01     5.74807e+03    -2.58226e+01
    3.18198e-03     4.00391e+04     7.66183e-60     4.00643e+04     0.00000e+00    -7.89785e+01     5.57774e+03    -2.54401e+01
    3.27784e-03     3.82760e+04     4.33041e-58     3.83002e+04     0.00000e+00    -7.88884e+01     5.41241e+03    -2.50632e+01
    3.37658e-03     3.65900e+04     2.17230e-56     3.66131e+04     0.00000e+00    -7.87964e+01     5.25191e+03    -2.46918e+01
    3.47830e-03     3.49777e+04     9.70544e-55     3.49998e+04     0.00000e+00    -7.87025e+01     5.09611e+03    -2.43258e+01
    3.58308e-03     3.34358e+04     3.87512e-53     3.34570e+04     0.00000e+00    -7.86067e+01     4.94488e+03    -2.39651e+01
    3.69102e-03     3.19614e+04     1.38726e-51     3.19817e+04     0.00000e+00    -7.85091e+01     4.79807e+03    -2.36096e+01
    3.80221e-03     3.05514e+04     4.46696e-50     3.05709e+04     0.00000e+00    -7.84096e+01     4.65555e+03    -2.32593e+01
    3.91675e-03     2.92031e+04     1.29777e-48     2.92218e+04     0.00000e+00    -7.83081e+01     4.51721e+03    -2.29141e+01
    4.03474e-03     2.79138e+04     3.41204e-47     2.79316e+04     0.00000e+00    -7.82048e+01     4.38292e+03    -2.25739e+01
    4.15628e-03     2.66809e+04     8.14198e-46     2.66980e+04     0.00000e+00    -7.80995e+01     4.25257e+03    -2.22386e+01
    4.28149e-03     2.55019e+04     1.76838e-44     2.55183e+04     0.00000e+00    -7.79923e+01     4.12603e+03    -2.19081e+01
    4.41046e-03     2.43745e+04     3.50542e-43     2.43902e+04     0.00000e+00    -7.78831e+01     4.00319e+03    -2.15825e+01
    4.54333e-03     2.32965e+04     6.35897e-42     2.33115e+04     0.00000e+00    -7.77719e+01     3.88395e+03    -2.12616e+01
    4.68019e-03     2.22657e+04     1.05837e-40     2.22801e+04     0.00000e+00    -7.76587e+01     3.76821e+03    -2.09453e+01
    4.82118e-03     2.12800e+04     1.62025e-39     2.12938e+04     0.00000e+00    -7.75436e+01     3.65585e+03    -2.06336e+01
    4.96641e-03     2.03375e+04     2.28710e-38     2.03507e+04     0.00000e+00    -7.74264e+01     3.54679e+03    -2.03264e+01
    5.11602e-03     1.94362e+04     2.98381e-37     1.94489e+04     0.00000e+00    -7.73071e+01     3.44092e+03    -2.00236e+01
    5.27014e-03     1.85745e+04     3.60611e-36     1.85866e+04     0.00000e+00    -7.71858e+01     3.33815e+03    -1.97252e+01
    5.42890e-03     1.77505e+04     4.04631e-35     1.77621e+04     0.00000e+00    -7.70624e+01     3.23840e+03    -1.94312e+01
    5.59244e-03     1.69626e+04     4.22448e-34     1.69737e+04     0.00000e+00    -7.69369e+01     3.14156e+03    -1.91413e+01
    5.76091e-03     1.62093e+04     4.11237e-33     1.62199e+04     0.00000e+00    -7.68093e+01     3.04757e+03    -1.88557e+01
    5.93446e-03     1.54890e+04     3.74029e-32     1.54992e+04     0.00000e+00    -7.66796e+01     2.95632e+03    -1.85742e+01
    6.11323e-03     1.48003e+04     3.18472e-31     1.48101e+04     0.00000e+00    -7.65477e+01     2.86776e+03    -1.82967e+01
    6.29739e-03     1.41418e+04     2.54348e-30     1.41512e+04     0.00000e+00    -7.64136e+01     2.78179e+03    -1.80232e+01
    6.48709e-03     1.35122e+04     1.90890e-29     1.35212e+04     0.00000e+00    -7.62774e+01     2.69833e+03    -1.77537e+01
    6.68251e-03     1.29103e+04     1.34874e-28     1.29189e+04     0.00000e+00    -7.61389e+01     2.61733e+03    -1.74880e+01
    6.88382e-03     1.23348e+04     8.98719e-28     1.23430e+04     0.00000e+00    -7.59982e+01     2.53870e+03    -1.72262e+01
    7.09119e-03     1.17845e+04     5.65736e-27     1.17925e+04     0.00000e+00    -7.58552e+01     2.46238e+03    -1.69681e+01
    7.30481e-03     1.12585e+04     3.36991e-26     1.12661e+04     0.00000e+00    -7.57099e+01     2.38829e+03    -1.67138e+01
    7.52486e-03     1.07555e+04     1.90255e-25     1.07628e+04     0.00000e+00    -7.55624e+01     2.31638e+03    -1.64631e+01
    7.75154e-03     1.02747e+04     1.01964e-24     1.02817e+04     0.00000e+00    -7.54125e+01     2.24658e+03    -1.62160e+01
    7.98505e-03     9.81503e+03     5.19526e-24     9.82175e+03     0.00000e+00    -7.52603e+01     2.17882e+03    -1.59724e+01
    8.22560e-03     9.37557e+03     2.52033e-23     9.38202e+03     0.00000e+00    -7.51057e+01     2.11306e+03    -1.57323e+01
    8.47339e-03     8.95546e+03     1.16579e-22     8.96164e+03     0.00000e+00    -7.49486e+01     2.04922e+03    -1.54957e+01
    8.72865e-03     8.55384e+03     5.14869e-22     8.55977e+03     0.00000e+00    -7.47892e+01     1.98726e+03    -1.52624e+01
    8.99159e-03     8.16991e+03     2.17406e-21     8.17560e+03     0.00000e+00    -7.46273e+01     1.92711e+03    -1.50325e+01
    9.26246e-03     7.80289e+03     8.78848e-21     7.80835e+03     0.00000e+00    -7.44630e+01     1.86874e+03    -1.48059e+01
    9.54148e-03     7.45205e+03     3.40544e-20     7.45729e+03     0.00000e+00    -7.42962e+01     1.81207e+03    -1.45825e+01
    9.82892e-03     7.11667e+03     1.26644e-19     7.12171e+03     0.00000e+00    -7.41268e+01     1.75707e+03    -1.43623e+01
    1.01250e-02     6.79610e+03     4.52554e-19     6.80093e+03     0.00000e+00    -7.39549e+01     1.70369e+03    -1.41452e+01
    1.04300e-02     6.48967e+03     9.84390e-03     6.49430e+03     0.00000e+00    -7.37804e+01     1.65188e+03    -1.39313e+01
    1.07442e-02     6.19677e+03     9.69354e-03     6.20122e+03     0.00000e+00    -7.36034e+01     1.60159e+03    -1.37204e+01
    1.10679e-02     5.91681e+03     9.54532e-03     5.92108e+03     0.00000e+00    -7.34237e+01     1.55277e+03    -1.35125e+01
    1.14013e-02     5.64922e+03     9.39921e-03     5.65332e+03     0.00000e+00    -7.32413e+01     1.50540e+03    -1.33075e+01
    1.17447e-02     5.39346e+03     9.25519e-03     5.39739e+03     0.00000e+00    -7.30563e+01     1.45941e+03    -1.31055e+01
    1.20986e-02     5.14901e+03     9.11322e-03     5.15279e+03     0.00000e+00    -7.28686e+01     1.41478e+03    -1.29063e+01
    1.24630e-02     4.91538e+03     8.97326e-03     4.91902e+03     0.00000e+00    -7.26781e+01     1.37147e+03    -1.27099e+01
    1.28385e-02     4.69210e+03     8.83530e-03     4.69559e+03     0.00000e+00    -7.24849e+01     1.32942e+03    -1.25164e+01
    1.32252e-02     4.47872e+03     8.69930e-03     4.48207e+03     0.00000e+00    -7.22889e+01     1.28862e+03    -1.23256e+01
    1.36236e-02     4.27479e+03     8.56523e-03     4.27801e+03     0.00000e+00    -7.20901e+01     1.24902e+03    -1.21375e+01
    1.40340e-02     4.07991e+03     8.43306e-03     4.08300e+03     0.00000e+00    -7.18885e+01     1.21058e+03    -1.19520e+01
    1.44568e-02     3.89368e+03     8.30276e-03     3.89665e+03     0.00000e+00    -7.16840e+01     1.17328e+03    -1.17692e+01
    1.48923e-02     3.71572e+03     8.17431e-03     3.71857e+03     0.00000e+00    -7.14766e+01     1.13707e+03    -1.15889e+01
    1.53409e-02     3.54566e+03     8.04768e-03     3.54841e+03     0.00000e+00    -7.12663e+01     1.10194e+03    -1.14112e+01
    1.58030e-02     3.38318e+03     7.92284e-03     3.38582e+03     0.00000e+00    -7.10530e+01     1.06784e+03    -1.12360e+01
    1.62791e-02     3.22792e+03     7.79976e-03     3.23046e+03     0.00000e+00    -7.08368e+01     1.03475e+03    -1.10633e+01
    1.67695e-02     3.07958e+03     7.67842e-03     3.08202e+03     0.00000e+00    -7.06175e+01     1.00263e+03    -1.08930e+01
    1.72747e-02     2.93785e+03     7.55880e-03     2.94020e+03     0.00000e+00    -7.03952e+01     9.71464e+02    -1.07251e+01
    1.77951e-02     2.80244e+03     7.44086e-03     2.80470e+03     0.00000e+00    -7.01699e+01     9.41218e+02    -1.05595e+01
    1.83311e-02     2.67307e+03     7.32458e-03     2.67525e+03     0.00000e+00    -6.99414e+01     9.11866e+02    -1.03963e+01
    1.88833e-02     2.54949e+03     7.20993e-03     2.55158e+03     0.00000e+00    -6.97099e+01     8.83382e+02    -1.02354e+01
    1.94522e-02     2.43143e+03     7.09690e-03     2.43344e+03     0.00000e+00    -6.94752e+01     8.55741e+02    -1.00767e+01
    2.00382e-02     2.31865e+03     6.98546e-03     2.32059e+03     0.00000e+00    -6.92373e+01     8.28919e+02    -9.92024e+00
    2.06418e-02     2.21092e+03     6.87558e-03     2.21279e+03     0.00000e+00    -6.89963e+01     8.02891e+02    -9.76597e+00
    2.12636e-02     2.10802e+03     6.76724e-03     2.10982e+03     0.00000e+00    -6.87520e+01     7.77634e+02    -9.61385e+00
    2.19042e-02     2.00974e+03     6.66041e-03     2.01147e+03     0.00000e+00    -6.85045e+01     7.53127e+02    -9.46386e+00
    2.25640e-02     1.91588e+03     6.55509e-03     1.91754e+03     0.00000e+00    -6.82537e+01     7.29347e+02    -9.31597e+00
    2.32438e-02     1.82623e+03     6.45124e-03     1.82783e+03     0.00000e+00    -6.79995e+01     7.06272e+02    -9.17013e+00
    2.39440e-02     1.74062e+03     6.34883e-03     1.74216e+03     0.00000e+00    -6.77421e+01     6.83884e+02    -9.02632e+00
    2.46653e-02     1.65886e+03     6.24786e-03     1.66035e+03     0.00000e+00    -6.74813e+01     6.62160e+02    -8.88451e+00
    2.54083e-02     1.58079e+03     6.14830e-03     1.58170e+03     0.00000e+00    -6.72171e+01     6.41084e+02    -8.74467e+00
    2.61737e-02     1.50625e+03     6.05012e-03     1.50711e+03     0.00000e+00    -6.69496e+01     6.20634e+02    -8.60678e+00
    2.69622e-02     1.43507e+03     5.95332e-03     1.43589e+03     0.00000e+00    -6.66786e+01     6.00794e+02    -8.47079e+00
    2.77744e-02     1.36712e+03     5.85785e-03     1.36790e+03     0.00000e+00    -6.64041e+01     5.81545e+02    -8.33669e+00
    2.86111e-02     1.30225e+03     5.76372e-03     1.30299e+03     0.00000e+00    -6.61262e+01     5.62871e+02    -8.20445e+00
    2.94730e-02     1.24032e+03     5.67089e-03     1.24102e+03     0.00000e+00    -6.58448e+01     5.44755e+02    -8.07403e+00
    3.03608e-02     1.18120e+03     5.57935e-03     1.18187e+03     0.00000e+00    -6.55598e+01     5.27180e+02    -7.94542e+00
    3.12754e-02     1.12477e+03     5.48908e-03     1.12541e+03     0.00000e+00    -6.52713e+01     5.10131e+02    -7.81858e+00
    3.22176e-02     1.07091e+03     5.40007e-03     1.07152e+03     0.00000e+00    -6.49793e+01     4.93592e+02    -7.69349e+00
    3.31881e-02     1.01951e+03     5.31228e-03     1.02008e+03     0.00000e+00    -6.46837e+01     4.77550e+02    -7.57012e+00
    3.41879e-02     9.70453e+02     5.22571e-03     9.71002e+02     0.00000e+00    -6.43844e+01     4.61988e+02    -7.44846e+00
    3.52178e-02     9.23642e+02     5.14033e-03     9.24165e+02     0.00000e+00    -6.40816e+01     4.46894e+02    -7.32846e+00
    3.62787e-02     8.78977e+02     5.05613e-03     8.79474e+02     0.00000e+00    -6.37751e+01     4.32254e+02    -7.21011e+00
    3.73716e-02     8.36361e+02     4.97310e-03     8.36833e+02     0.00000e+00    -6.34650e+01     4.18055e+02    -7.09339e+00
    3.84974e-02     7.95704e+02     4.89121e-03     7.96153e+02     0.00000e+00    -6.31512e+01     4.04284e+02    -6.97827e+00
    3.96571e-02     7.56919e+02     4.81045e-03     7.57345e+02     0.00000e+00    -6.28337e+01     3.90928e+02    -6.86472e+00
    4.08517e-02     7.19923e+02     4.73080e-03     7.20328e+02     0.00000e+00    -6.25125e+01     3.77976e+02    -6.75273e+00
    4.20824e-02     6.84636e+02     4.65224e-03     6.85020e+02     0.00000e+00    -6.21876e+01     3.65416e+02    -6.64228e+00
    4.33501e-02     6.50982e+02     4.57477e-03     6.51347e+02     0.00000e+00    -6.18590e+01     3.53236e+02    -6.53333e+00
    4.46560e-02     6.18889e+02     4.49836e-03     6.19236e+02     0.00000e+00    -6.15267e+01     3.41426e+02    -6.42587e+00
    4.60012e-02     5.88287e+02     4.42300e-03     5.88616e+02     0.00000e+00    -6.11906e+01     3.29974e+02    -6.31988e+00
    4.73870e-02     5.59110e+02     4.34868e-03     5.59422e+02     0.00000e+00    -6.08508e+01     3.18871e+02    -6.21533e+00
    4.88145e-02     5.31293e+02     4.27537e-03     5.31590e+02     0.00000e+00    -6.05072e+01     3.08107e+02    -6.11221e+00
    5.02850e-02     5.04777e+02     4.20307e-03     5.05059e+02     0.00000e+00    -6.01598e+01     2.97671e+02    -6.01050e+00
    5.17998e-02     4.79503e+02     4.13176e-03     4.79770e+02     0.00000e+00    -5.98088e+01     2.87554e+02    -5.91017e+00
    5.33602e-02     4.55416e+02     4.06143e-03     4.55669e+02     0.00000e+00    -5.94539e+01     2.77747e+02    -5.81120e+00
    5.49677e-02     4.32462e+02     3.99206e-03     4.32702e+02     0.00000e+00    -5.90953e+01     2.68241e+02    -5.71358e+00
    5.66235e-02     4.10591e+02     3.92364e-03     4.10819e+02     0.00000e+00    -5.87329e+01     2.59027e+02    -5.61729e+00
    5.83293e-02     3.89754e+02     3.85616e-03     3.89970e+02     0.00000e+00    -5.83668e+01     2.50097e+02    -5.52231e+00
    6.00864e-02     3.69904e+02     3.78960e-03     3.70109e+02     0.00000e+00    -5.79969e+01     2.41442e+02    -5.42861e+00
    6.18965e-02     3.50997e+02     3.72396e-03     3.51191e+02     0.00000e+00    -5.76232e+01     2.33055e+02    -5.33619e+00
    6.37611e-02     3.32991e+02     3.65921e-03     3.33175e+02     0.00000e+00    -5.72459e+01     2.24929e+02    -5.24503e+00
    6.56818e-02     3.15845e+02     3.59534e-03     3.16019e+02     0.00000e+00    -5.68648e+01     2.17054e+02    -5.15510e+00
    6.76605e-02     2.99520e+02     3.53235e-03     2.99685e+02     0.00000e+00    -5.64800e+01     2.09425e+02    -5.06639e+00
    6.96987e-02     2.83980e+02     3.47023e-03     2.84136e+02     0.00000e+00    -5.60914e+01     2.02034e+02    -4.97889e+00
    7.17983e-02     2.69187e+02     3.40895e-03     2.69335e+02     0.00000e+00    -5.56993e+01     1.94873e+02    -4.89258e+00
    7.39612e-02     2.55109e+02     3.34851e-03     2.55249e+02     0.00000e+00    -5.53034e+01     1.87938e+02    -4.80743e+00
    7.61893e-02     2.41713e+02     3.28890e-03     2.41846e+02     0.00000e+00    -5.49039e+01     1.81220e+02    -4.72345e+00
    7.84844e-02     2.28968e+02     3.23011e-03     2.29093e+02     0.00000e+00    -5.45008e+01     1.74715e+02    -4.64060e+00
    8.08487e-02     2.16845e+02     3.17213e-03     2.16963e+02     0.00000e+00    -5.40941e+01     1.68414e+02    -4.55888e+00
    8.32842e-02     2.05314e+02     3.11494e-03     2.05426e+02     0.00000e+00    -5.36839e+01     1.62314e+02    -4.47827e+00
    8.57931e-02     1.94349e+02     3.05853e-03     1.94455e+02     0.00000e+00    -5.32701e+01     1.56407e+02    -4.39876e+00
    8.83776e-02     1.83924e+02     3.00290e-03     1.84024e+02     0.00000e+00    -5.28528e+01     1.50689e+02    -4.32032e+00
    9.10399e-02     1.74014e+02     2.94804e-03     1.74109e+02     0.00000e+00    -5.24320e+01     1.45154e+02    -4.24296e+00
    9.37824e-02     1.64596e+02     2.89393e-03     1.64685e+02     0.00000e+00    -5.20079e+01     1.39796e+02    -4.16665e+00
