# All units in Hartree [AU] if not specified
# Convergence: Err(φ)=-inf, Err(n_e)=3.441e-09, Err(IET)=9.969e-13, Q_net=-4.547e-13
# {"name":"Al", "Z":13, "Zstar":4.044038719955634, "A":26.981539,  "μ[AU]": 2.5272502531e-01, "Te[AU]": 3.675e-01, "Ti[AU]": 3.675e-02, "rs[AU]": 2.990e+00 }
   r[AU]           n[AU]           nf[AU]          nb[AU]          n_ion[AU]       φtot[AU]        δVxc/δρ[Au]     U_ei[AU]        U_ii[AU]        g_ii            
   1.000000e-03    1.413615e+05    4.201006e+00    1.413573e+05    0.000000e+00    1.294726e+04   -3.865992e+01    1.416827e+01    7.316872e+03    0.000000e+00
   1.373798e-03    8.765854e+04    3.588300e+00    8.765495e+04    0.000000e+00    9.410122e+03   -3.298977e+01    1.298684e+01    6.974970e+03    0.000000e+00
   1.806827e-03    5.801044e+04    3.082480e+00    5.800736e+04    0.000000e+00    7.142411e+03   -2.876773e+01    1.196231e+01    6.578892e+03    0.000000e+00
   2.299087e-03    4.032824e+04    2.738895e+00    4.032550e+04    0.000000e+00    5.602142e+03   -2.550088e+01    1.123591e+01    6.128637e+03    0.000000e+00
   2.850578e-03    2.913840e+04    2.452778e+00    2.913595e+04    0.000000e+00    4.508494e+03   -2.289723e+01    1.060936e+01    5.624206e+03    0.000000e+00
   3.461299e-03    2.171667e+04    3.524137e+00    2.171314e+04    0.000000e+00    3.704151e+03   -2.077283e+01    1.285937e+01    5.065598e+03    0.000000e+00
   4.131252e-03    1.660288e+04    3.221486e+00    1.659965e+04    0.000000e+00    3.095423e+03   -1.900603e+01    1.224887e+01    4.452813e+03    0.000000e+00
   4.860435e-03    1.296632e+04    2.969864e+00    1.296335e+04    0.000000e+00    2.623690e+03   -1.751313e+01    1.172732e+01    3.785852e+03    0.000000e+00
   5.648849e-03    1.031063e+04    2.748512e+00    1.030788e+04    0.000000e+00    2.250750e+03   -1.623469e+01    1.125663e+01    3.064714e+03    0.000000e+00
   6.496494e-03    8.326786e+03    2.560529e+00    8.324225e+03    0.000000e+00    1.950847e+03   -1.512732e+01    1.084755e+01    2.604193e+03    0.000000e+00
   7.403370e-03    6.815529e+03    2.394392e+00    6.813134e+03    0.000000e+00    1.706100e+03   -1.415860e+01    1.047829e+01    2.327653e+03    0.000000e+00
   8.369476e-03    5.644475e+03    2.247488e+00    5.642227e+03    0.000000e+00    1.503786e+03   -1.330382e+01    1.014487e+01    2.033051e+03    0.000000e+00
   9.394814e-03    4.723326e+03    2.117599e+00    4.721208e+03    0.000000e+00    1.334647e+03   -1.254382e+01    9.844221e+00    1.785094e+03    0.000000e+00
   1.047938e-02    3.989054e+03    2.001035e+00    3.987053e+03    0.000000e+00    1.191819e+03   -1.186352e+01    9.569301e+00    1.619691e+03    0.000000e+00
   1.162318e-02    3.396767e+03    1.897468e+00    3.394869e+03    0.000000e+00    1.070127e+03   -1.125088e+01    9.321118e+00    1.445255e+03    0.000000e+00
   1.282621e-02    2.913895e+03    1.802802e+00    2.912092e+03    0.000000e+00    9.656067e+02   -1.069617e+01    9.090472e+00    1.314576e+03    0.000000e+00
   1.408847e-02    2.516426e+03    1.715949e+00    2.514710e+03    0.000000e+00    8.751825e+02   -1.019144e+01    8.875059e+00    1.199039e+03    0.000000e+00
   1.540996e-02    2.186396e+03    1.637163e+00    2.184759e+03    0.000000e+00    7.964372e+02   -9.730147e+00    8.677266e+00    1.092087e+03    0.000000e+00
   1.679069e-02    1.910182e+03    1.565918e+00    1.908616e+03    0.000000e+00    7.274504e+02   -9.306839e+00    8.495190e+00    1.007800e+03    0.000000e+00
   1.823064e-02    1.677324e+03    1.498863e+00    1.675825e+03    0.000000e+00    6.666807e+02   -8.916937e+00    8.322046e+00    9.249494e+02    0.000000e+00
   1.972983e-02    1.479708e+03    1.437715e+00    1.478270e+03    0.000000e+00    6.128794e+02   -8.556582e+00    8.161648e+00    8.595493e+02    0.000000e+00
   2.128824e-02    1.310969e+03    1.381049e+00    1.309588e+03    0.000000e+00    5.650262e+02   -8.222484e+00    8.010957e+00    7.954578e+02    0.000000e+00
   2.290589e-02    1.166071e+03    1.328115e+00    1.164742e+03    0.000000e+00    5.222809e+02   -7.911824e+00    7.868788e+00    7.425032e+02    0.000000e+00
   2.458276e-02    1.040990e+03    1.278348e+00    1.039711e+03    0.000000e+00    4.839466e+02   -7.622178e+00    7.733316e+00    6.924148e+02    0.000000e+00
   2.631887e-02    9.324915e+02    1.232711e+00    9.312587e+02    0.000000e+00    4.494412e+02   -7.351450e+00    7.607506e+00    6.481853e+02    0.000000e+00
   2.811421e-02    8.379482e+02    1.189502e+00    8.367586e+02    0.000000e+00    4.182754e+02   -7.097806e+00    7.486965e+00    6.085611e+02    0.000000e+00
   2.996878e-02    7.552169e+02    1.148992e+00    7.540678e+02    0.000000e+00    3.900358e+02   -6.859652e+00    7.372666e+00    5.709878e+02    0.000000e+00
   3.188258e-02    6.825349e+02    1.110710e+00    6.814241e+02    0.000000e+00    3.643708e+02   -6.635581e+00    7.263665e+00    5.390295e+02    0.000000e+00
   3.385561e-02    6.184453e+02    1.074909e+00    6.173703e+02    0.000000e+00    3.409802e+02   -6.424359e+00    7.160582e+00    5.087555e+02    0.000000e+00
   3.588787e-02    5.617350e+02    1.040877e+00    5.606940e+02    0.000000e+00    3.196061e+02   -6.224887e+00    7.061545e+00    4.804662e+02    0.000000e+00
   3.797937e-02    5.113907e+02    1.008909e+00    5.103817e+02    0.000000e+00    3.000262e+02   -6.036194e+00    6.967532e+00    4.557981e+02    0.000000e+00
   4.013009e-02    4.665597e+02    9.784953e-01    4.655811e+02    0.000000e+00    2.820480e+02   -5.857409e+00    6.877180e+00    4.325403e+02    0.000000e+00
   4.234005e-02    4.265223e+02    9.496256e-01    4.255726e+02    0.000000e+00    2.655041e+02   -5.687758e+00    6.790550e+00    4.108193e+02    0.000000e+00
   4.460923e-02    3.906678e+02    9.222656e-01    3.897455e+02    0.000000e+00    2.502483e+02   -5.526543e+00    6.707632e+00    3.908994e+02    0.000000e+00
   4.693765e-02    3.584758e+02    8.961373e-01    3.575796e+02    0.000000e+00    2.361525e+02   -5.373138e+00    6.627672e+00    3.727318e+02    0.000000e+00
   4.932529e-02    3.295012e+02    8.713646e-01    3.286298e+02    0.000000e+00    2.231044e+02   -5.226978e+00    6.551148e+00    3.557037e+02    0.000000e+00
   5.177217e-02    3.033615e+02    8.476804e-01    3.025138e+02    0.000000e+00    2.110045e+02   -5.087551e+00    6.477430e+00    3.397875e+02    0.000000e+00
   5.427828e-02    2.797270e+02    8.249539e-01    2.789020e+02    0.000000e+00    1.997652e+02   -4.954391e+00    6.406032e+00    3.249270e+02    0.000000e+00
   5.684362e-02    2.583130e+02    8.034179e-01    2.575095e+02    0.000000e+00    1.893085e+02   -4.827080e+00    6.337739e+00    3.110535e+02    0.000000e+00
   5.946819e-02    2.388717e+02    7.826991e-01    2.380889e+02    0.000000e+00    1.795652e+02   -4.705232e+00    6.271421e+00    2.982472e+02    0.000000e+00
   6.215199e-02    2.211878e+02    7.629300e-01    2.204249e+02    0.000000e+00    1.704733e+02   -4.588496e+00    6.207540e+00    2.862303e+02    0.000000e+00
   6.489503e-02    2.050731e+02    7.438715e-01    2.043292e+02    0.000000e+00    1.619778e+02   -4.476551e+00    6.145370e+00    2.749383e+02    0.000000e+00
   6.769729e-02    1.903631e+02    7.256581e-01    1.896374e+02    0.000000e+00    1.540289e+02   -4.369104e+00    6.085468e+00    2.643219e+02    0.000000e+00
   7.055878e-02    1.769129e+02    7.082022e-01    1.762047e+02    0.000000e+00    1.465821e+02   -4.265885e+00    6.027723e+00    2.543324e+02    0.000000e+00
   7.347951e-02    1.645950e+02    6.912969e-01    1.639037e+02    0.000000e+00    1.395973e+02   -4.166642e+00    5.971252e+00    2.449231e+02    0.000000e+00
   7.645947e-02    1.532973e+02    6.751389e-01    1.526221e+02    0.000000e+00    1.330383e+02   -4.071150e+00    5.916682e+00    2.360502e+02    0.000000e+00
   7.949865e-02    1.429199e+02    6.595304e-01    1.422604e+02    0.000000e+00    1.268724e+02   -3.979195e+00    5.863447e+00    2.276727e+02    0.000000e+00
   8.259707e-02    1.333749e+02    6.445503e-01    1.327303e+02    0.000000e+00    1.210699e+02   -3.890582e+00    5.812103e+00    2.197530e+02    0.000000e+00
   8.575472e-02    1.245835e+02    6.300553e-01    1.239534e+02    0.000000e+00    1.156038e+02   -3.805130e+00    5.762015e+00    2.122565e+02    0.000000e+00
   8.897160e-02    1.164761e+02    6.161048e-01    1.158599e+02    0.000000e+00    1.104496e+02   -3.722671e+00    5.713312e+00    2.051514e+02    0.000000e+00
   9.224771e-02    1.089900e+02    6.026154e-01    1.083874e+02    0.000000e+00    1.055850e+02   -3.643048e+00    5.665732e+00    1.984087e+02    0.000000e+00
   9.558305e-02    1.020696e+02    5.895735e-01    1.014800e+02    0.000000e+00    1.009895e+02   -3.566116e+00    5.619605e+00    1.920019e+02    0.000000e+00
   9.897762e-02    9.566484e+01    5.753194e-01    9.508948e+01    0.000000e+00    9.664464e+01   -3.491740e+00    5.568790e+00    1.859379e+02    0.000000e+00
   1.024314e-01    8.973085e+01    5.635581e-01    8.916726e+01    0.000000e+00    9.253324e+01   -3.419795e+00    5.526279e+00    1.801731e+02    0.000000e+00
   1.059445e-01    8.422717e+01    5.520595e-01    8.367507e+01    0.000000e+00    8.863968e+01   -3.350161e+00    5.484401e+00    1.746758e+02    0.000000e+00
   1.095167e-01    7.911742e+01    5.408005e-01    7.857658e+01    0.000000e+00    8.494957e+01   -3.282729e+00    5.443226e+00    1.694275e+02    0.000000e+00
   1.131482e-01    7.436880e+01    5.297909e-01    7.383897e+01    0.000000e+00    8.144969e+01   -3.217396e+00    5.402517e+00    1.644111e+02    0.000000e+00
   1.168389e-01    6.995160e+01    5.190374e-01    6.943253e+01    0.000000e+00    7.812788e+01   -3.154066e+00    5.362408e+00    1.596251e+02    0.000000e+00
   1.205889e-01    6.583891e+01    5.085439e-01    6.533033e+01    0.000000e+00    7.497288e+01   -3.092646e+00    5.323138e+00    1.550703e+02    0.000000e+00
   1.243981e-01    6.200649e+01    4.984277e-01    6.150803e+01    0.000000e+00    7.197435e+01   -3.033054e+00    5.284833e+00    1.507017e+02    0.000000e+00
   1.282665e-01    5.843208e+01    4.886372e-01    5.794341e+01    0.000000e+00    6.912268e+01   -2.975208e+00    5.247423e+00    1.465078e+02    0.000000e+00
   1.321942e-01    5.509562e+01    4.792503e-01    5.461634e+01    0.000000e+00    6.640901e+01   -2.919032e+00    5.211415e+00    1.425050e+02    0.000000e+00
   1.361810e-01    5.197884e+01    4.703181e-01    5.150849e+01    0.000000e+00    6.382511e+01   -2.864458e+00    5.176698e+00    1.386673e+02    0.000000e+00
   1.402271e-01    4.906499e+01    4.618431e-01    4.860311e+01    0.000000e+00    6.136335e+01   -2.811417e+00    5.143541e+00    1.349717e+02    0.000000e+00
   1.443325e-01    4.633888e+01    4.538138e-01    4.588503e+01    0.000000e+00    5.901664e+01   -2.759846e+00    5.111863e+00    1.314369e+02    0.000000e+00
   1.484971e-01    4.378654e+01    4.446802e-01    4.334183e+01    0.000000e+00    5.677840e+01   -2.709687e+00    5.075631e+00    1.280365e+02    0.000000e+00
   1.527209e-01    4.139520e+01    4.360970e-01    4.095907e+01    0.000000e+00    5.464249e+01   -2.660881e+00    5.041459e+00    1.247590e+02    0.000000e+00
   1.570039e-01    3.915329e+01    4.281429e-01    3.872512e+01    0.000000e+00    5.260319e+01   -2.613377e+00    5.009358e+00    1.216193e+02    0.000000e+00
   1.613462e-01    3.705001e+01    4.207625e-01    3.662922e+01    0.000000e+00    5.065519e+01   -2.567123e+00    4.979223e+00    1.185818e+02    0.000000e+00
   1.657477e-01    3.507555e+01    4.135519e-01    3.466197e+01    0.000000e+00    4.879350e+01   -2.522073e+00    4.949667e+00    1.156699e+02    0.000000e+00
   1.702084e-01    3.322092e+01    4.056002e-01    3.281529e+01    0.000000e+00    4.701347e+01   -2.478180e+00    4.916855e+00    1.128507e+02    0.000000e+00
   1.747283e-01    3.147778e+01    3.983398e-01    3.107941e+01    0.000000e+00    4.531077e+01   -2.435402e+00    4.886694e+00    1.101417e+02    0.000000e+00
   1.793075e-01    2.983847e+01    3.917512e-01    2.944669e+01    0.000000e+00    4.368133e+01   -2.393697e+00    4.858905e+00    1.075166e+02    0.000000e+00
   1.839460e-01    2.829596e+01    3.849057e-01    2.791103e+01    0.000000e+00    4.212133e+01   -2.353028e+00    4.829908e+00    1.049926e+02    0.000000e+00
   1.886436e-01    2.684372e+01    3.779168e-01    2.646578e+01    0.000000e+00    4.062720e+01   -2.313356e+00    4.800211e+00    1.025447e+02    0.000000e+00
   1.934005e-01    2.547573e+01    3.716436e-01    2.510406e+01    0.000000e+00    3.919560e+01   -2.274647e+00    4.773027e+00    1.001850e+02    0.000000e+00
   1.982166e-01    2.418647e+01    3.655117e-01    2.382094e+01    0.000000e+00    3.782337e+01   -2.236868e+00    4.746475e+00    9.789933e+01    0.000000e+00
   2.030919e-01    2.297076e+01    3.589507e-01    2.261179e+01    0.000000e+00    3.650756e+01   -2.199985e+00    4.717827e+00    9.568537e+01    0.000000e+00
   2.080265e-01    2.182388e+01    3.531490e-01    2.147071e+01    0.000000e+00    3.524539e+01   -2.163970e+00    4.692181e+00    9.354711e+01    0.000000e+00
   2.130203e-01    2.074139e+01    3.472873e-01    2.039408e+01    0.000000e+00    3.403424e+01   -2.128793e+00    4.666084e+00    9.147184e+01    0.000000e+00
   2.180734e-01    1.971920e+01    3.413035e-01    1.937787e+01    0.000000e+00    3.287165e+01   -2.094426e+00    4.639278e+00    8.945991e+01    0.000000e+00
   2.231856e-01    1.875353e+01    3.360586e-01    1.841745e+01    0.000000e+00    3.175529e+01   -2.060842e+00    4.615453e+00    8.751319e+01    0.000000e+00
   2.283571e-01    1.784085e+01    3.302576e-01    1.751057e+01    0.000000e+00    3.068298e+01   -2.028017e+00    4.589010e+00    8.562250e+01    0.000000e+00
   2.335879e-01    1.697787e+01    3.249406e-01    1.665291e+01    0.000000e+00    2.965266e+01   -1.995927e+00    4.564605e+00    8.378613e+01    0.000000e+00
   2.388778e-01    1.616156e+01    3.198095e-01    1.584173e+01    0.000000e+00    2.866236e+01   -1.964547e+00    4.540647e+00    8.200477e+01    0.000000e+00
   2.442270e-01    1.538908e+01    3.144886e-01    1.507456e+01    0.000000e+00    2.771025e+01   -1.933856e+00    4.515892e+00    8.027591e+01    0.000000e+00
   2.496354e-01    1.465777e+01    3.098415e-01    1.434790e+01    0.000000e+00    2.679458e+01   -1.903833e+00    4.493719e+00    7.859504e+01    0.000000e+00
   2.551031e-01    1.396517e+01    3.045645e-01    1.366058e+01    0.000000e+00    2.591371e+01   -1.874456e+00    4.468794e+00    7.696052e+01    0.000000e+00
   2.606300e-01    1.330899e+01    2.999999e-01    1.300896e+01    0.000000e+00    2.506608e+01   -1.845708e+00    4.446719e+00    7.537074e+01    0.000000e+00
   2.662161e-01    1.268708e+01    2.950938e-01    1.239196e+01    0.000000e+00    2.425021e+01   -1.817569e+00    4.423040e+00    7.382407e+01    0.000000e+00
   2.718614e-01    1.209744e+01    2.906225e-01    1.180679e+01    0.000000e+00    2.346471e+01   -1.790020e+00    4.401108e+00    7.232017e+01    0.000000e+00
   2.775660e-01    1.153820e+01    2.860171e-01    1.125216e+01    0.000000e+00    2.270824e+01   -1.763045e+00    4.378409e+00    7.085630e+01    0.000000e+00
   2.833298e-01    1.100761e+01    2.816822e-01    1.072590e+01    0.000000e+00    2.197954e+01   -1.736627e+00    4.356812e+00    6.943054e+01    0.000000e+00
   2.891528e-01    1.050402e+01    2.773023e-01    1.022669e+01    0.000000e+00    2.127743e+01   -1.710750e+00    4.334793e+00    6.804151e+01    0.000000e+00
   2.950351e-01    1.002591e+01    2.731315e-01    9.752761e+00    0.000000e+00    2.060078e+01   -1.685399e+00    4.313662e+00    6.668786e+01    0.000000e+00
   3.009766e-01    9.571852e+00    2.689349e-01    9.302897e+00    0.000000e+00    1.994849e+01   -1.660559e+00    4.292160e+00    6.536833e+01    0.000000e+00
   3.069773e-01    9.140487e+00    2.649501e-01    8.875516e+00    0.000000e+00    1.931956e+01   -1.636216e+00    4.271603e+00    6.408165e+01    0.000000e+00
   3.130373e-01    8.730557e+00    2.608934e-01    8.469644e+00    0.000000e+00    1.871301e+01   -1.612355e+00    4.250440e+00    6.282665e+01    0.000000e+00
   3.191565e-01    8.340882e+00    2.571115e-01    8.083751e+00    0.000000e+00    1.812791e+01   -1.588965e+00    4.230547e+00    6.160218e+01    0.000000e+00
   3.253349e-01    7.970350e+00    2.531706e-01    7.717160e+00    0.000000e+00    1.756338e+01   -1.566032e+00    4.209635e+00    6.040713e+01    0.000000e+00
   3.315726e-01    7.617920e+00    2.496025e-01    7.368298e+00    0.000000e+00    1.701859e+01   -1.543544e+00    4.190467e+00    5.924045e+01    0.000000e+00
   3.378694e-01    7.282611e+00    2.457592e-01    7.036833e+00    0.000000e+00    1.649274e+01   -1.521489e+00    4.169743e+00    5.810113e+01    0.000000e+00
   3.442256e-01    6.963502e+00    2.422916e-01    6.721192e+00    0.000000e+00    1.598506e+01   -1.499856e+00    4.150777e+00    5.698916e+01    0.000000e+00
   3.506409e-01    6.659731e+00    2.386511e-01    6.421061e+00    0.000000e+00    1.549484e+01   -1.478634e+00    4.130739e+00    5.590275e+01    0.000000e+00
   3.571155e-01    6.370486e+00    2.352332e-01    6.135235e+00    0.000000e+00    1.502137e+01   -1.457812e+00    4.111746e+00    5.484097e+01    0.000000e+00
   3.636493e-01    6.094994e+00    2.318439e-01    5.863132e+00    0.000000e+00    1.456401e+01   -1.437380e+00    4.092637e+00    5.380297e+01    0.000000e+00
   3.702423e-01    5.832534e+00    2.284670e-01    5.604049e+00    0.000000e+00    1.412212e+01   -1.417327e+00    4.073585e+00    5.278793e+01    0.000000e+00
   3.768946e-01    5.582435e+00    2.253249e-01    5.357093e+00    0.000000e+00    1.369510e+01   -1.397646e+00    4.055405e+00    5.179535e+01    0.000000e+00
   3.836061e-01    5.344045e+00    2.219924e-01    5.122035e+00    0.000000e+00    1.328238e+01   -1.378325e+00    4.036316e+00    5.082535e+01    0.000000e+00
   3.903768e-01    5.116772e+00    2.189068e-01    4.897848e+00    0.000000e+00    1.288340e+01   -1.359357e+00    4.018172e+00    4.987606e+01    0.000000e+00
   3.972068e-01    4.900034e+00    2.157987e-01    4.684219e+00    0.000000e+00    1.249766e+01   -1.340732e+00    3.999916e+00    4.894680e+01    0.000000e+00
   4.040960e-01    4.693309e+00    2.127389e-01    4.480553e+00    0.000000e+00    1.212463e+01   -1.322443e+00    3.981662e+00    4.803766e+01    0.000000e+00
   4.110444e-01    4.496077e+00    2.098732e-01    4.286187e+00    0.000000e+00    1.176386e+01   -1.304481e+00    3.964350e+00    4.714809e+01    0.000000e+00
   4.180521e-01    4.307865e+00    2.068464e-01    4.101002e+00    0.000000e+00    1.141487e+01   -1.286837e+00    3.946019e+00    4.627666e+01    0.000000e+00
   4.251189e-01    4.128223e+00    2.039978e-01    3.924209e+00    0.000000e+00    1.107723e+01   -1.269506e+00    3.928562e+00    4.542357e+01    0.000000e+00
   4.322451e-01    3.956719e+00    2.012218e-01    3.755481e+00    0.000000e+00    1.075052e+01   -1.252479e+00    3.911235e+00    4.458833e+01    0.000000e+00
   4.394304e-01    3.792951e+00    1.983927e-01    3.594542e+00    0.000000e+00    1.043434e+01   -1.235749e+00    3.893651e+00    4.376955e+01    0.000000e+00
   4.466750e-01    3.636538e+00    1.957156e-01    3.440807e+00    0.000000e+00    1.012830e+01   -1.219309e+00    3.876589e+00    4.296823e+01    0.000000e+00
   4.539788e-01    3.487122e+00    1.930485e-01    3.294058e+00    0.000000e+00    9.832033e+00   -1.203153e+00    3.859594e+00    4.218251e+01    0.000000e+00
   4.613418e-01    3.344357e+00    1.903897e-01    3.153953e+00    0.000000e+00    9.545189e+00   -1.187273e+00    3.842404e+00    4.141281e+01    0.000000e+00
   4.687641e-01    3.207922e+00    1.878582e-01    3.020049e+00    0.000000e+00    9.267428e+00   -1.171664e+00    3.825874e+00    4.065826e+01    0.000000e+00
   4.762456e-01    3.077509e+00    1.853148e-01    2.892180e+00    0.000000e+00    8.998424e+00   -1.156320e+00    3.809062e+00    3.991870e+01    0.000000e+00
