# All units in [AU] if not specified
{"name":"Al", "Z":18, "Zstar":0.4225565195083618, "A":49,  "μ[AU]": -1.878e-01, "T[AU]": 4.410e-02, "rs[AU]": 1.390e+01 }
	 r[AU]  	 n[AU]  	 nf[AU]  	 nb[AU]     n_ion[AU]    (φ_e+φ_ions)[AU]   φtotal[AU]     δVxc/δρ[Au]  
   2.000000e-02    2.339788e+03    7.216122e-03    2.340784e+03    0.000000e+00   -6.416096e+01    8.357095e+02   -9.949945e+00
   2.090915e-02    2.178787e+03    7.046695e-03    2.179739e+03    0.000000e+00   -6.404173e+01    7.966961e+02   -9.718980e+00
   2.185962e-02    2.028480e+03    6.880813e-03    2.029390e+03    0.000000e+00   -6.390444e+01    7.594022e+02   -9.492830e+00
   2.285330e-02    1.888171e+03    6.718396e-03    1.889041e+03    0.000000e+00   -6.374946e+01    7.237535e+02   -9.271389e+00
   2.389215e-02    1.757208e+03    6.559370e-03    1.758041e+03    0.000000e+00   -6.357716e+01    6.896789e+02   -9.054552e+00
   2.497822e-02    1.634981e+03    6.403657e-03    1.635779e+03    0.000000e+00   -6.338787e+01    6.571104e+02   -8.842214e+00
   2.611366e-02    1.520924e+03    6.251185e-03    1.521171e+03    0.000000e+00   -6.318193e+01    6.259829e+02   -8.634281e+00
   2.730072e-02    1.414500e+03    6.101883e-03    1.414728e+03    0.000000e+00   -6.295963e+01    5.962341e+02   -8.430649e+00
   2.854174e-02    1.315213e+03    5.955679e-03    1.315423e+03    0.000000e+00   -6.272129e+01    5.678046e+02   -8.231229e+00
   2.983917e-02    1.222595e+03    5.812507e-03    1.222789e+03    0.000000e+00   -6.246717e+01    5.406373e+02   -8.035922e+00
   3.119557e-02    1.136212e+03    5.672300e-03    1.136390e+03    0.000000e+00   -6.219755e+01    5.146779e+02   -7.844643e+00
   3.261364e-02    1.055655e+03    5.534992e-03    1.055818e+03    0.000000e+00   -6.191269e+01    4.898741e+02   -7.657301e+00
   3.409617e-02    9.805419e+02    5.400520e-03    9.806912e+02    0.000000e+00   -6.161283e+01    4.661762e+02   -7.473810e+00
   3.564609e-02    9.105165e+02    5.268823e-03    9.106534e+02    0.000000e+00   -6.129822e+01    4.435365e+02   -7.294084e+00
   3.726646e-02    8.452450e+02    5.139839e-03    8.453705e+02    0.000000e+00   -6.096907e+01    4.219094e+02   -7.118044e+00
   3.896050e-02    7.844154e+02    5.013510e-03    7.845302e+02    0.000000e+00   -6.062561e+01    4.012513e+02   -6.945608e+00
   4.073154e-02    7.277358e+02    4.889779e-03    7.278405e+02    0.000000e+00   -6.026806e+01    3.815205e+02   -6.776699e+00
   4.258308e-02    6.749329e+02    4.768589e-03    6.750284e+02    0.000000e+00   -5.989661e+01    3.626770e+02   -6.611240e+00
   4.451879e-02    6.257513e+02    4.649886e-03    6.258383e+02    0.000000e+00   -5.951149e+01    3.446826e+02   -6.449156e+00
   4.654250e-02    5.799519e+02    4.533617e-03    5.800315e+02    0.000000e+00   -5.911287e+01    3.275009e+02   -6.290374e+00
   4.865819e-02    5.373124e+02    4.419730e-03    5.373844e+02    0.000000e+00   -5.870097e+01    3.110969e+02   -6.134827e+00
   5.087006e-02    4.976226e+02    4.308174e-03    4.976883e+02    0.000000e+00   -5.827596e+01    2.954372e+02   -5.982442e+00
   5.318248e-02    4.606883e+02    4.198901e-03    4.607475e+02    0.000000e+00   -5.783805e+01    2.804898e+02   -5.833156e+00
   5.560001e-02    4.263258e+02    4.091862e-03    4.263795e+02    0.000000e+00   -5.738742e+01    2.662240e+02   -5.686900e+00
   5.812744e-02    3.943646e+02    3.987010e-03    3.944133e+02    0.000000e+00   -5.692426e+01    2.526107e+02   -5.543611e+00
   6.076975e-02    3.646452e+02    3.884301e-03    3.646891e+02    0.000000e+00   -5.644877e+01    2.396217e+02   -5.403231e+00
   6.353218e-02    3.370180e+02    3.783691e-03    3.370575e+02    0.000000e+00   -5.596114e+01    2.272303e+02   -5.265696e+00
   6.642018e-02    3.113432e+02    3.685135e-03    3.113786e+02    0.000000e+00   -5.546156e+01    2.154109e+02   -5.130949e+00
   6.943947e-02    2.874903e+02    3.588593e-03    2.875220e+02    0.000000e+00   -5.495023e+01    2.041388e+02   -4.998933e+00
   7.259600e-02    2.653369e+02    3.494025e-03    2.653652e+02    2.476679e-13   -5.442735e+01    1.933907e+02   -4.869592e+00
   7.589602e-02    2.447688e+02    3.401389e-03    2.447941e+02    4.928242e-13   -5.389314e+01    1.831440e+02   -4.742871e+00
   7.934604e-02    2.256795e+02    3.310649e-03    2.257019e+02    7.293226e-13   -5.334780e+01    1.733771e+02   -4.618722e+00
   8.295290e-02    2.079688e+02    3.221767e-03    2.079886e+02    9.554924e-13   -5.279155e+01    1.640695e+02   -4.497090e+00
   8.672371e-02    1.915434e+02    3.134707e-03    1.915610e+02    1.169548e-12   -5.222462e+01    1.552016e+02   -4.377927e+00
   9.066594e-02    1.763162e+02    3.049433e-03    1.763316e+02    1.369594e-12   -5.164725e+01    1.467542e+02   -4.261185e+00
   9.478737e-02    1.622054e+02    2.965913e-03    1.622189e+02    1.553627e-12   -5.105967e+01    1.387095e+02   -4.146819e+00
   9.909615e-02    1.491348e+02    2.884112e-03    1.491465e+02    1.719545e-12   -5.046213e+01    1.310501e+02   -4.034781e+00
   1.036008e-01    1.370330e+02    2.803999e-03    1.370432e+02    1.865162e-12   -4.985490e+01    1.237594e+02   -3.925029e+00
   1.083102e-01    1.258336e+02    2.725542e-03    1.258423e+02    1.988222e-12   -4.923825e+01    1.168216e+02   -3.817522e+00
   1.132337e-01    1.154741e+02    2.648712e-03    1.154815e+02    2.086420e-12   -4.861245e+01    1.102213e+02   -3.712216e+00
   1.183810e-01    1.058963e+02    2.573479e-03    1.059026e+02    2.157435e-12   -4.797779e+01    1.039441e+02   -3.609072e+00
   1.237623e-01    9.704581e+01    2.499816e-03    9.705108e+01    2.198959e-12   -4.733458e+01    9.797604e+01   -3.508052e+00
   1.293882e-01    8.887186e+01    2.427695e-03    8.887619e+01    2.208752e-12   -4.668313e+01    9.230363e+01   -3.409119e+00
   1.352698e-01    8.132686e+01    2.357088e-03    8.133042e+01    2.184690e-12   -4.602378e+01    8.691411e+01   -3.312234e+00
   1.414188e-01    7.436660e+01    2.287972e-03    7.436939e+01    2.124838e-12   -4.535684e+01    8.179517e+01   -3.217366e+00
   1.478473e-01    6.794949e+01    2.220321e-03    6.795164e+01    2.027538e-12   -4.468269e+01    7.693502e+01   -3.124477e+00
   1.545681e-01    6.203689e+01    2.154111e-03    6.203847e+01    1.891505e-12   -4.400168e+01    7.232237e+01   -3.033536e+00
   1.615943e-01    5.659265e+01    2.089318e-03    5.659373e+01    1.715960e-12   -4.331418e+01    6.794637e+01   -2.944512e+00
   1.689400e-01    5.158301e+01    2.025922e-03    5.158366e+01    1.500769e-12   -4.262059e+01    6.379664e+01   -2.857372e+00
   1.766195e-01    4.697650e+01    1.963898e-03    4.697676e+01    1.246630e-12   -4.192131e+01    5.986318e+01   -2.772087e+00
   1.846481e-01    4.274368e+01    1.903228e-03    4.274362e+01    9.552811e-13   -4.121676e+01    5.613644e+01   -2.688628e+00
   1.930418e-01    3.885715e+01    1.843890e-03    3.885681e+01    6.297520e-13   -4.050735e+01    5.260722e+01   -2.606967e+00
   2.018169e-01    3.529132e+01    1.785864e-03    3.529074e+01    2.746637e-13   -3.979354e+01    4.926671e+01   -2.527077e+00
   2.109910e-01    3.202230e+01    1.729132e-03    3.202152e+01   -1.034200e-13   -3.907577e+01    4.610644e+01   -2.448932e+00
   2.205820e-01    2.902785e+01    1.673676e-03    2.902690e+01   -4.955780e-13   -3.835450e+01    4.311829e+01   -2.372505e+00
   2.306091e-01    2.628722e+01    1.619477e-03    2.628614e+01   -8.900437e-13   -3.763021e+01    4.029444e+01   -2.297773e+00
   2.410920e-01    2.378109e+01    1.566517e-03    2.377990e+01   -1.271634e-12   -3.690338e+01    3.762741e+01   -2.224710e+00
   2.520514e-01    2.149143e+01    1.514782e-03    2.149017e+01   -1.621079e-12   -3.617452e+01    3.510999e+01   -2.153294e+00
   2.635089e-01    1.940153e+01    1.464253e-03    1.940019e+01   -1.914237e-12   -3.544411e+01    3.273527e+01   -2.083502e+00
   2.754873e-01    1.749575e+01    1.414915e-03    1.749436e+01   -2.121182e-12   -3.471267e+01    3.049658e+01   -2.015312e+00
   2.880103e-01    1.575957e+01    1.366753e-03    1.575816e+01   -2.205138e-12   -3.398072e+01    2.838755e+01   -1.948702e+00
   3.011024e-01    1.417952e+01    1.319752e-03    1.417809e+01   -2.121232e-12   -3.324878e+01    2.640204e+01   -1.883651e+00
   3.147897e-01    1.274303e+01    1.273897e-03    1.274161e+01   -1.815050e-12   -3.251739e+01    2.453413e+01   -1.820138e+00
   3.290992e-01    1.143848e+01    1.229173e-03    1.143706e+01   -1.220963e-12   -3.178707e+01    2.277818e+01   -1.758143e+00
   3.440592e-01    1.025503e+01    1.185568e-03    1.025363e+01   -2.601649e-13   -3.105837e+01    2.112871e+01   -1.697647e+00
   3.596992e-01    9.182657e+00    1.143066e-03    9.181282e+00    1.150251e-12   -3.033181e+01    1.958050e+01   -1.638629e+00
   3.760501e-01    8.212058e+00    1.101656e-03    8.210714e+00    3.011872e-12   -2.960795e+01    1.812850e+01   -1.581071e+00
   3.931444e-01    7.334619e+00    1.061323e-03    7.333308e+00    5.267500e-12   -2.888731e+01    1.676789e+01   -1.524954e+00
   4.110156e-01    6.542353e+00    1.022054e-03    6.541084e+00    7.833568e-12   -2.817043e+01    1.549402e+01   -1.470259e+00
   4.296993e-01    5.827891e+00    9.838370e-04    5.826663e+00    1.059469e-11   -2.745785e+01    1.430241e+01   -1.416967e+00
   4.492323e-01    5.184408e+00    9.466589e-04    5.183225e+00    1.339697e-11   -2.675008e+01    1.318878e+01   -1.365060e+00
   4.696532e-01    4.605611e+00    9.105072e-04    4.604471e+00    1.604011e-11   -2.604764e+01    1.214901e+01   -1.314520e+00
   4.910023e-01    4.085685e+00    8.753692e-04    4.084592e+00    1.830182e-11   -2.535105e+01    1.117915e+01   -1.265328e+00
   5.133220e-01    3.619279e+00    8.412326e-04    3.618233e+00    2.673190e-11   -2.466079e+01    1.027541e+01   -1.217466e+00
   5.366562e-01    3.201466e+00    8.080849e-04    3.200466e+00    6.562350e-11   -2.397738e+01    9.434146e+00   -1.170915e+00
   5.610511e-01    2.827710e+00    7.759137e-04    2.826757e+00    1.681854e-10   -2.330126e+01    8.651870e+00   -1.125657e+00
   5.865550e-01    2.493850e+00    7.447065e-04    2.492943e+00    3.762360e-10   -2.263292e+01    7.925238e+00   -1.081673e+00
   6.132182e-01    2.196065e+00    7.144508e-04    2.195202e+00    7.418461e-10   -2.197278e+01    7.251049e+00   -1.038944e+00
   6.410935e-01    1.930854e+00    6.851342e-04    1.930035e+00    1.335358e-09   -2.132129e+01    6.626237e+00   -9.974523e-01
   6.702358e-01    1.695013e+00    6.567439e-04    1.694236e+00    2.360385e-09   -2.067884e+01    6.047870e+00   -9.571769e-01
   7.007029e-01    1.485615e+00    6.292672e-04    1.484878e+00    4.180855e-09   -2.004584e+01    5.513143e+00   -9.180989e-01
   7.325550e-01    1.299986e+00    6.026912e-04    1.299288e+00    7.256826e-09   -1.942265e+01    5.019380e+00   -8.801980e-01
   7.658550e-01    1.135692e+00    5.770029e-04    1.135030e+00    1.215923e-08   -1.880962e+01    4.564023e+00   -8.434541e-01
   8.006687e-01    9.905137e-01    5.521892e-04    9.898872e-01    1.969069e-08   -1.820707e+01    4.144635e+00   -8.078462e-01
   8.370649e-01    8.624380e-01    5.282365e-04    8.618455e-01    3.121602e-08   -1.761531e+01    3.758894e+00   -7.733528e-01
   8.751156e-01    7.496381e-01    5.051314e-04    7.490773e-01    4.851291e-08   -1.703462e+01    3.404588e+00   -7.399524e-01
   9.148960e-01    6.505131e-01    4.828731e-04    6.499829e-01    7.376892e-08   -1.646525e+01    3.079615e+00   -7.078387e-01
   9.564847e-01    5.635816e-01    4.614549e-04    5.630798e-01    1.097877e-07   -1.590743e+01    2.781977e+00   -6.770518e-01
   9.999639e-01    4.874159e-01    4.408469e-04    4.869412e-01    1.602320e-07   -1.536136e+01    2.509783e+00   -6.473106e-01
   1.045420e+00    4.207993e-01    4.210352e-04    4.203504e-01    2.295787e-07   -1.482722e+01    2.261239e+00   -6.185939e-01
   1.092942e+00    3.626381e-01    4.020059e-04    3.622131e-01    3.231480e-07   -1.430516e+01    2.034647e+00   -5.908801e-01
   1.142624e+00    3.119492e-01    3.837448e-04    3.115468e-01    4.470127e-07   -1.379531e+01    1.828401e+00   -5.641470e-01
   1.194564e+00    2.678518e-01    3.662374e-04    2.674707e-01    6.083390e-07   -1.329776e+01    1.640987e+00   -5.383718e-01
   1.248866e+00    2.295583e-01    3.494693e-04    2.291972e-01    8.151218e-07   -1.281259e+01    1.470976e+00   -5.135317e-01
   1.305636e+00    1.963650e-01    3.334254e-04    1.960228e-01    1.075706e-06   -1.233986e+01    1.317022e+00   -4.896031e-01
   1.364987e+00    1.676455e-01    3.180905e-04    1.673209e-01    1.399490e-06   -1.187958e+01    1.177859e+00   -4.665623e-01
   1.427035e+00    1.428421e-01    3.034492e-04    1.425341e-01    1.795755e-06   -1.143176e+01    1.052301e+00   -4.443846e-01
   1.491905e+00    1.214604e-01    2.894855e-04    1.211679e-01    2.274096e-06   -1.099638e+01    9.392330e-01   -4.230451e-01
   1.559722e+00    1.030620e-01    2.761831e-04    1.027842e-01    2.843815e-06   -1.057340e+01    8.376121e-01   -4.025180e-01
   1.630623e+00    8.725978e-02    2.635250e-04    8.699563e-02    3.513513e-06   -1.016275e+01    7.464636e-01   -3.827768e-01
   1.704747e+00    7.371204e-02    2.514938e-04    7.346078e-02    4.291152e-06   -9.764369e+00    6.648770e-01   -3.637941e-01
   1.782240e+00    6.211824e-02    2.400711e-04    6.187901e-02    5.183481e-06   -9.378139e+00    5.920040e-01   -3.455416e-01
   1.863256e+00    5.221416e-02    2.292379e-04    5.198626e-02    6.195506e-06   -9.003948e+00    5.270545e-01   -3.279893e-01
   1.947955e+00    4.376842e-02    2.189739e-04    4.355113e-02    7.330168e-06   -8.641662e+00    4.692943e-01   -3.111060e-01
   2.036503e+00    3.657860e-02    2.092577e-04    3.637127e-02    8.589061e-06   -8.291132e+00    4.180415e-01   -2.948582e-01
   2.129077e+00    3.046809e-02    2.000662e-04    3.027011e-02    9.971550e-06   -7.952197e+00    3.726638e-01   -2.792103e-01
   2.225859e+00    2.528328e-02    1.913746e-04    2.509405e-02    1.147400e-05   -7.624683e+00    3.325756e-01   -2.641239e-01
   2.327041e+00    2.089078e-02    1.831559e-04    2.070978e-02    1.309327e-05   -7.308405e+00    2.972349e-01   -2.495569e-01
   2.432822e+00    1.717535e-02    1.753806e-04    1.700206e-02    1.482232e-05   -7.003169e+00    2.661404e-01   -2.354640e-01
   2.543411e+00    1.403775e-02    1.680162e-04    1.387172e-02    1.664801e-05   -6.708774e+00    2.388290e-01   -2.217958e-01
   2.659028e+00    1.139313e-02    1.610273e-04    1.123393e-02    1.856440e-05   -6.425012e+00    2.148728e-01   -2.085001e-01
   2.779900e+00    9.169439e-03    1.543753e-04    9.016697e-03    2.056228e-05   -6.151670e+00    1.938771e-01   -1.955230e-01
   2.906267e+00    7.306182e-03    1.480191e-04    7.159566e-03    2.263073e-05   -5.888529e+00    1.754776e-01   -1.828131e-01
   3.038378e+00    5.753279e-03    1.419165e-04    5.612499e-03    2.476046e-05   -5.635368e+00    1.593394e-01   -1.703293e-01
   3.176495e+00    4.469862e-03    1.360279e-04    4.334688e-03    2.694318e-05   -5.391963e+00    1.451554e-01   -1.580532e-01
   3.320889e+00    3.422913e-03    1.303220e-04    3.293160e-03    2.917213e-05   -5.158083e+00    1.326462e-01   -1.460098e-01
   3.471848e+00    2.585053e-03    1.247837e-04    2.460586e-03    3.144111e-05   -4.933493e+00    1.215603e-01   -1.342900e-01
   3.629669e+00    1.931432e-03    1.194223e-04    1.812132e-03    3.374321e-05   -4.717948e+00    1.116759e-01   -1.230607e-01
   3.794664e+00    1.436318e-03    1.142700e-04    1.322053e-03    3.606935e-05   -4.511195e+00    1.028020e-01   -1.125402e-01
   3.967159e+00    1.071501e-03    1.093692e-04    9.620897e-04    3.840594e-05   -4.312967e+00    9.477907e-02   -1.029320e-01
   4.147495e+00    8.078909e-04    1.047525e-04    7.030938e-04    4.071597e-05   -4.122986e+00    8.747728e-02   -9.435608e-02
   4.336029e+00    6.189217e-04    1.004315e-04    5.184623e-04    4.301091e-05   -3.940964e+00    8.079325e-02   -8.682446e-02
   4.533134e+00    4.830640e-04    9.639740e-05    3.866573e-04    4.527271e-05   -3.766612e+00    7.464511e-02   -8.026598e-02
   4.739198e+00    3.843430e-04    9.262836e-05    2.917195e-04    4.747001e-05   -3.599638e+00    6.896781e-02   -7.456763e-02
   4.954629e+00    3.115254e-04    8.909780e-05    2.224409e-04    4.963281e-05   -3.439752e+00    6.370912e-02   -6.960747e-02
   5.179853e+00    2.568983e-04    8.577863e-05    1.711422e-04    5.172704e-05   -3.286670e+00    5.882639e-02   -6.527126e-02
   5.415315e+00    2.167543e-04    8.277448e-05    1.340182e-04    5.372621e-05   -3.140117e+00    5.428424e-02   -6.180298e-02
   5.661480e+00    1.864710e-04    8.003594e-05    1.064644e-04    5.562761e-05   -2.999821e+00    5.005391e-02   -5.899796e-02
   5.918836e+00    1.624924e-04    7.745719e-05    8.505988e-05    5.745324e-05   -2.865521e+00    4.611149e-02   -5.655495e-02
   6.187890e+00    1.432127e-04    7.501980e-05    6.822444e-05    5.920717e-05   -2.736966e+00    4.243614e-02   -5.441032e-02
   6.469175e+00    1.275503e-04    7.271185e-05    5.485934e-05    6.089229e-05   -2.613911e+00    3.900951e-02   -5.252098e-02
   6.763246e+00    1.146438e-04    7.051948e-05    4.414795e-05    6.251280e-05   -2.496123e+00    3.581523e-02   -5.084309e-02
   7.070685e+00    1.039237e-04    6.843490e-05    3.551016e-05    6.407397e-05   -2.383378e+00    3.283859e-02   -4.934956e-02
   7.392099e+00    9.495298e-05    6.645126e-05    2.850916e-05    6.558382e-05   -2.275460e+00    3.006623e-02   -4.801730e-02
   7.728124e+00    8.735299e-05    6.455915e-05    2.280276e-05    6.704407e-05   -2.172163e+00    2.748599e-02   -4.681992e-02
   8.079424e+00    8.089123e-05    6.275507e-05    1.814315e-05    6.844475e-05   -2.073289e+00    2.508665e-02   -4.574467e-02
   8.446693e+00    7.536604e-05    6.103446e-05    1.433245e-05    6.980304e-05   -1.978648e+00    2.285784e-02   -4.477767e-02
   8.830657e+00    7.059940e-05    5.939129e-05    1.121169e-05    7.111663e-05   -1.888058e+00    2.078995e-02   -4.390362e-02
   9.232074e+00    6.648836e-05    5.782427e-05    8.662471e-06    7.238247e-05   -1.801345e+00    1.887394e-02   -4.311665e-02
   9.651740e+00    6.290107e-05    5.632650e-05    6.581187e-06    7.360476e-05   -1.718342e+00    1.710138e-02   -4.240214e-02
   1.009048e+01    5.979267e-05    5.489922e-05    4.894900e-06    7.478731e-05   -1.638889e+00    1.546427e-02   -4.175996e-02
   1.054917e+01    5.707427e-05    5.353668e-05    3.535869e-06    7.592824e-05   -1.562835e+00    1.395506e-02   -4.117921e-02
   1.102870e+01    5.468837e-05    5.223513e-05    2.451879e-06    7.703715e-05   -1.490032e+00    1.256659e-02   -4.065356e-02
   1.153004e+01    5.258896e-05    5.099068e-05    1.600869e-06    7.810485e-05   -1.420342e+00    1.129199e-02   -4.017776e-02
   1.205416e+01    5.075780e-05    4.980220e-05    9.509404e-07    7.914495e-05   -1.353630e+00    1.012466e-02   -3.975191e-02
   1.260211e+01    4.914383e-05    4.866037e-05    4.740277e-07    8.015941e-05   -1.289768e+00    9.058292e-03   -3.936767e-02
   1.317497e+01    4.770816e-05    4.755170e-05    1.531767e-07    8.116175e-05   -1.228634e+00    8.086762e-03   -3.901846e-02
   1.377387e+01    4.645798e-05    4.644913e-05    0.000000e+00    8.218645e-05   -1.170112e+00    7.204031e-03   -3.870839e-02
   1.439999e+01    4.534644e-05    4.533982e-05   -7.927164e-24    8.325517e-05   -1.114091e+00    6.404162e-03   -3.842781e-02
   1.505458e+01    4.437406e-05    4.436381e-05   -2.058712e-23    8.419147e-05   -1.060463e+00    5.681108e-03   -3.817842e-02
   1.573892e+01    4.350240e-05    4.349963e-05   -3.486696e-23    8.501216e-05   -1.009127e+00    5.029144e-03   -3.795162e-02
   1.645437e+01    4.275484e-05    4.274322e-05   -4.940458e-23    8.572085e-05   -9.599861e-01    4.442718e-03   -3.775458e-02
   1.720234e+01    4.208298e-05    4.207353e-05   -6.373058e-23    8.632961e-05   -9.129470e-01    3.916685e-03   -3.757544e-02
   1.798431e+01    4.148490e-05    4.148234e-05   -7.744909e-23    8.684593e-05   -8.679206e-01    3.446073e-03   -3.741430e-02
