# All units in [AU] if not specified
{"name":"Al", "Z":13, "Zstar":2.732605499743417, "A":28,  "μ[AU]": -2.090e-01, "T[AU]": 3.675e-01, "rs[AU]": 3.000e+00 }
	 r[AU]  	 n[AU]  	 nf[AU]  	 nb[AU]     n_ion[AU]    (φ_e+φ_ions)[AU]   φtotal[AU]     δVxc/δρ[Au]  
    1.00000e-03     1.41175e+05     4.57274e+00     1.41354e+05     0.00000e+00    -5.26482e+01     1.29469e+04    -3.86429e+01
    1.02617e-03     1.35794e+05     4.51390e+00     1.35967e+05     0.00000e+00    -5.26379e+01     1.26154e+04    -3.81477e+01
    1.05303e-03     1.30618e+05     4.45580e+00     1.30784e+05     0.00000e+00    -5.26266e+01     1.22922e+04    -3.76587e+01
    1.08059e-03     1.25639e+05     4.39846e+00     1.25799e+05     0.00000e+00    -5.26145e+01     1.19774e+04    -3.71760e+01
    1.10888e-03     1.20850e+05     4.34184e+00     1.21003e+05     0.00000e+00    -5.26014e+01     1.16705e+04    -3.66994e+01
    1.13790e-03     1.16242e+05     4.28595e+00     1.16390e+05     0.00000e+00    -5.25875e+01     1.13715e+04    -3.62290e+01
    1.16768e-03     1.11810e+05     4.23077e+00     1.11952e+05     0.00000e+00    -5.25726e+01     1.10801e+04    -3.57645e+01
    1.19825e-03     1.07547e+05     4.17630e+00     1.07683e+05     0.00000e+00    -5.25569e+01     1.07962e+04    -3.53060e+01
    1.22961e-03     1.03445e+05     4.12252e+00     1.03576e+05     0.00000e+00    -5.25403e+01     1.05195e+04    -3.48533e+01
    1.26179e-03     9.94998e+04     4.06943e+00     9.96260e+04     0.00000e+00    -5.25228e+01     1.02499e+04    -3.44064e+01
    1.29482e-03     9.57045e+04     4.01702e+00     9.58259e+04     0.00000e+00    -5.25044e+01     9.98709e+03    -3.39652e+01
    1.32871e-03     9.20536e+04     3.96528e+00     9.21703e+04     0.00000e+00    -5.24852e+01     9.73103e+03    -3.35297e+01
    1.36348e-03     8.85416e+04     3.91420e+00     8.86538e+04     0.00000e+00    -5.24652e+01     9.48150e+03    -3.30997e+01
    1.39917e-03     8.51632e+04     3.86377e+00     8.52711e+04     0.00000e+00    -5.24443e+01     9.23833e+03    -3.26752e+01
    1.43579e-03     8.19133e+04     3.81398e+00     8.20171e+04     0.00000e+00    -5.24225e+01     9.00137e+03    -3.22561e+01
    1.47337e-03     7.87871e+04     3.76483e+00     7.88869e+04     0.00000e+00    -5.23999e+01     8.77046e+03    -3.18423e+01
    1.51194e-03     7.57798e+04     3.71631e+00     7.58757e+04     0.00000e+00    -5.23764e+01     8.54543e+03    -3.14338e+01
    1.55151e-03     7.28869e+04     3.66841e+00     7.29792e+04     0.00000e+00    -5.23521e+01     8.32615e+03    -3.10306e+01
    1.59212e-03     7.01042e+04     3.62112e+00     7.01929e+04     0.00000e+00    -5.23270e+01     8.11246e+03    -3.06324e+01
    1.63379e-03     6.74273e+04     3.57443e+00     6.75126e+04     0.00000e+00    -5.23011e+01     7.90422e+03    -3.02394e+01
    1.67655e-03     6.48523e+04     3.52834e+00     6.49343e+04     0.00000e+00    -5.22743e+01     7.70130e+03    -2.98514e+01
    1.72043e-03     6.23752e+04     3.48284e+00     6.24541e+04     0.00000e+00    -5.22467e+01     7.50355e+03    -2.94683e+01
    1.76546e-03     5.99925e+04     3.43791e+00     6.00683e+04     0.00000e+00    -5.22183e+01     7.31085e+03    -2.90900e+01
    1.81167e-03     5.77004e+04     3.39356e+00     5.77734e+04     0.00000e+00    -5.21890e+01     7.12307e+03    -2.87167e+01
    1.85909e-03     5.54956e+04     3.34978e+00     5.55658e+04     0.00000e+00    -5.21589e+01     6.94007e+03    -2.83480e+01
    1.90775e-03     5.33747e+04     3.30655e+00     5.34422e+04     0.00000e+00    -5.21280e+01     6.76175e+03    -2.79841e+01
    1.95768e-03     5.13346e+04     3.26388e+00     5.13994e+04     0.00000e+00    -5.20963e+01     6.58798e+03    -2.76248e+01
    2.00892e-03     4.93721e+04     3.22175e+00     4.94344e+04     0.00000e+00    -5.20638e+01     6.41863e+03    -2.72700e+01
    2.06150e-03     4.74843e+04     3.18015e+00     4.75442e+04     0.00000e+00    -5.20304e+01     6.25362e+03    -2.69198e+01
    2.11546e-03     4.56684e+04     3.13909e+00     4.57260e+04     0.00000e+00    -5.19962e+01     6.09281e+03    -2.65741e+01
    2.17083e-03     4.39216e+04     3.09855e+00     4.39770e+04     0.00000e+00    -5.19612e+01     5.93610e+03    -2.62327e+01
    2.22765e-03     4.22414e+04     3.05852e+00     4.22946e+04     0.00000e+00    -5.19254e+01     5.78339e+03    -2.58957e+01
    2.28595e-03     4.06251e+04     3.01901e+00     4.06763e+04     0.00000e+00    -5.18888e+01     5.63458e+03    -2.55629e+01
    2.34579e-03     3.90704e+04     2.97999e+00     3.91196e+04     0.00000e+00    -5.18513e+01     5.48957e+03    -2.52344e+01
    2.40718e-03     3.75748e+04     2.94148e+00     3.76222e+04     0.00000e+00    -5.18130e+01     5.34826e+03    -2.49101e+01
    2.47019e-03     3.61363e+04     2.90345e+00     3.61818e+04     0.00000e+00    -5.17739e+01     5.21055e+03    -2.45899e+01
    2.53484e-03     3.47525e+04     2.86591e+00     3.47963e+04     0.00000e+00    -5.17340e+01     5.07636e+03    -2.42738e+01
    2.60119e-03     3.34215e+04     2.82885e+00     3.34635e+04     0.00000e+00    -5.16932e+01     4.94559e+03    -2.39617e+01
    2.66927e-03     3.21411e+04     2.79226e+00     3.21816e+04     0.00000e+00    -5.16516e+01     4.81816e+03    -2.36535e+01
    2.73913e-03     3.09096e+04     2.75613e+00     3.09484e+04     0.00000e+00    -5.16091e+01     4.69398e+03    -2.33493e+01
    2.81083e-03     2.97249e+04     2.72046e+00     2.97623e+04     0.00000e+00    -5.15658e+01     4.57297e+03    -2.30489e+01
    2.88440e-03     2.85854e+04     2.68525e+00     2.86213e+04     0.00000e+00    -5.15217e+01     4.45505e+03    -2.27524e+01
    2.95989e-03     2.74893e+04     2.65048e+00     2.75239e+04     0.00000e+00    -5.14767e+01     4.34014e+03    -2.24596e+01
    3.03736e-03     2.64350e+04     2.61616e+00     2.64661e+04     0.00000e+00    -5.14309e+01     4.22816e+03    -2.21705e+01
    3.11686e-03     2.54209e+04     2.58227e+00     2.54507e+04     0.00000e+00    -5.13843e+01     4.11904e+03    -2.18851e+01
    3.19844e-03     2.44455e+04     2.54881e+00     2.44740e+04     0.00000e+00    -5.13367e+01     4.01271e+03    -2.16033e+01
    3.28216e-03     2.35072e+04     2.51578e+00     2.35345e+04     0.00000e+00    -5.12884e+01     3.90909e+03    -2.13250e+01
    3.36806e-03     2.26047e+04     2.48316e+00     2.26309e+04     0.00000e+00    -5.12391e+01     3.80811e+03    -2.10503e+01
    3.45622e-03     2.17366e+04     2.45096e+00     2.17617e+04     0.00000e+00    -5.11890e+01     3.70972e+03    -2.07791e+01
    3.54668e-03     2.09016e+04     2.41917e+00     2.09257e+04     0.00000e+00    -5.11380e+01     3.61383e+03    -2.05114e+01
    3.63951e-03     2.00984e+04     2.38779e+00     2.01216e+04     0.00000e+00    -5.10862e+01     3.52039e+03    -2.02470e+01
    3.73477e-03     1.93259e+04     2.35680e+00     1.93481e+04     0.00000e+00    -5.10334e+01     3.42934e+03    -1.99859e+01
    3.83252e-03     1.85828e+04     2.32620e+00     1.86041e+04     0.00000e+00    -5.09798e+01     3.34061e+03    -1.97282e+01
    3.93283e-03     1.78681e+04     2.29599e+00     1.78885e+04     0.00000e+00    -5.09253e+01     3.25415e+03    -1.94737e+01
    4.03577e-03     1.71807e+04     2.26616e+00     1.72003e+04     0.00000e+00    -5.08699e+01     3.16989e+03    -1.92225e+01
    4.14140e-03     1.65195e+04     2.23671e+00     1.65382e+04     0.00000e+00    -5.08135e+01     3.08779e+03    -1.89744e+01
    4.24979e-03     1.58835e+04     2.20764e+00     1.59015e+04     0.00000e+00    -5.07563e+01     3.00778e+03    -1.87294e+01
    4.36103e-03     1.52718e+04     2.17893e+00     1.52890e+04     0.00000e+00    -5.06982e+01     2.92982e+03    -1.84876e+01
    4.47517e-03     1.46835e+04     2.15058e+00     1.47000e+04     0.00000e+00    -5.06391e+01     2.85384e+03    -1.82488e+01
    4.59230e-03     1.41176e+04     2.12260e+00     1.41334e+04     0.00000e+00    -5.05791e+01     2.77981e+03    -1.80130e+01
    4.71250e-03     1.35733e+04     2.09497e+00     1.35885e+04     0.00000e+00    -5.05182e+01     2.70767e+03    -1.77802e+01
    4.83584e-03     1.30498e+04     2.06768e+00     1.30643e+04     0.00000e+00    -5.04563e+01     2.63737e+03    -1.75504e+01
    4.96241e-03     1.25463e+04     2.04075e+00     1.25602e+04     0.00000e+00    -5.03935e+01     2.56887e+03    -1.73234e+01
    5.09230e-03     1.20621e+04     2.01415e+00     1.20754e+04     0.00000e+00    -5.03297e+01     2.50211e+03    -1.70993e+01
    5.22558e-03     1.15963e+04     1.98789e+00     1.16090e+04     0.00000e+00    -5.02649e+01     2.43706e+03    -1.68780e+01
    5.36236e-03     1.11483e+04     1.96196e+00     1.11605e+04     0.00000e+00    -5.01992e+01     2.37368e+03    -1.66595e+01
    5.50271e-03     1.07175e+04     1.93635e+00     1.07292e+04     0.00000e+00    -5.01325e+01     2.31191e+03    -1.64438e+01
    5.64673e-03     1.03031e+04     1.91107e+00     1.03143e+04     0.00000e+00    -5.00649e+01     2.25172e+03    -1.62308e+01
    5.79453e-03     9.90460e+03     1.88611e+00     9.91527e+03     0.00000e+00    -4.99962e+01     2.19307e+03    -1.60204e+01
    5.94619e-03     9.52131e+03     1.86147e+00     9.53151e+03     0.00000e+00    -4.99265e+01     2.13591e+03    -1.58128e+01
    6.10183e-03     9.15268e+03     1.83713e+00     9.16244e+03     0.00000e+00    -4.98558e+01     2.08022e+03    -1.56077e+01
    6.26153e-03     8.79815e+03     1.81310e+00     8.80748e+03     0.00000e+00    -4.97841e+01     2.02595e+03    -1.54052e+01
    6.42542e-03     8.45719e+03     1.78938e+00     8.46611e+03     0.00000e+00    -4.97114e+01     1.97307e+03    -1.52052e+01
    6.59360e-03     8.12928e+03     1.76595e+00     8.13780e+03     0.00000e+00    -4.96376e+01     1.92154e+03    -1.50078e+01
    6.76618e-03     7.81391e+03     1.74281e+00     7.82206e+03     0.00000e+00    -4.95628e+01     1.87133e+03    -1.48128e+01
    6.94327e-03     7.51062e+03     1.71997e+00     7.51840e+03     0.00000e+00    -4.94870e+01     1.82240e+03    -1.46203e+01
    7.12500e-03     7.21895e+03     1.69742e+00     7.22638e+03     0.00000e+00    -4.94100e+01     1.77472e+03    -1.44302e+01
    7.31149e-03     6.93844e+03     1.67515e+00     6.94554e+03     0.00000e+00    -4.93320e+01     1.72826e+03    -1.42425e+01
    7.50286e-03     6.66869e+03     1.65315e+00     6.67546e+03     0.00000e+00    -4.92529e+01     1.68299e+03    -1.40571e+01
    7.69923e-03     6.40927e+03     1.63144e+00     6.41574e+03     0.00000e+00    -4.91728e+01     1.63887e+03    -1.38740e+01
    7.90075e-03     6.15979e+03     1.61000e+00     6.16597e+03     0.00000e+00    -4.90915e+01     1.59589e+03    -1.36933e+01
    8.10754e-03     5.91988e+03     1.58882e+00     5.92577e+03     0.00000e+00    -4.90091e+01     1.55400e+03    -1.35148e+01
    8.31975e-03     5.68917e+03     1.56791e+00     5.69479e+03     0.00000e+00    -4.89256e+01     1.51319e+03    -1.33385e+01
    8.53751e-03     5.46731e+03     1.54727e+00     5.47267e+03     0.00000e+00    -4.88410e+01     1.47342e+03    -1.31645e+01
    8.76096e-03     5.25397e+03     1.52688e+00     5.25907e+03     0.00000e+00    -4.87552e+01     1.43467e+03    -1.29926e+01
    8.99027e-03     5.04881e+03     1.50674e+00     5.05367e+03     0.00000e+00    -4.86683e+01     1.39691e+03    -1.28228e+01
    9.22558e-03     4.85153e+03     1.48686e+00     4.85616e+03     0.00000e+00    -4.85802e+01     1.36011e+03    -1.26552e+01
    9.46704e-03     4.66183e+03     1.46723e+00     4.66623e+03     0.00000e+00    -4.84909e+01     1.32426e+03    -1.24897e+01
    9.71483e-03     4.47941e+03     1.44784e+00     4.48361e+03     0.00000e+00    -4.84005e+01     1.28933e+03    -1.23262e+01
    9.96910e-03     4.30400e+03     1.42870e+00     4.30800e+03     0.00000e+00    -4.83088e+01     1.25529e+03    -1.21648e+01
    1.02300e-02     4.13534e+03     1.40979e+00     4.13914e+03     0.00000e+00    -4.82160e+01     1.22212e+03    -1.20053e+01
    1.04978e-02     3.97316e+03     1.39112e+00     3.97677e+03     0.00000e+00    -4.81219e+01     1.18980e+03    -1.18479e+01
    1.07726e-02     3.81722e+03     1.37269e+00     3.82065e+03     0.00000e+00    -4.80266e+01     1.15831e+03    -1.16924e+01
    1.10545e-02     3.66728e+03     1.35448e+00     3.67054e+03     0.00000e+00    -4.79301e+01     1.12763e+03    -1.15389e+01
    1.13438e-02     3.52312e+03     1.33650e+00     3.52621e+03     0.00000e+00    -4.78323e+01     1.09773e+03    -1.13872e+01
    1.16408e-02     3.38450e+03     1.31874e+00     3.38744e+03     0.00000e+00    -4.77333e+01     1.06860e+03    -1.12375e+01
    1.19454e-02     3.25123e+03     1.30120e+00     3.25401e+03     0.00000e+00    -4.76330e+01     1.04022e+03    -1.10896e+01
    1.22581e-02     3.12309e+03     1.28389e+00     3.12573e+03     0.00000e+00    -4.75314e+01     1.01256e+03    -1.09435e+01
    1.25789e-02     2.99990e+03     1.26678e+00     3.00239e+03     0.00000e+00    -4.74285e+01     9.85612e+02    -1.07992e+01
    1.29082e-02     2.88145e+03     1.24989e+00     2.88382e+03     0.00000e+00    -4.73243e+01     9.59356e+02    -1.06568e+01
    1.32460e-02     2.76758e+03     1.23321e+00     2.76981e+03     0.00000e+00    -4.72188e+01     9.33774e+02    -1.05160e+01
    1.35927e-02     2.65810e+03     1.21674e+00     2.66021e+03     0.00000e+00    -4.71120e+01     9.08849e+02    -1.03771e+01
    1.39485e-02     2.55285e+03     1.20047e+00     2.55485e+03     0.00000e+00    -4.70038e+01     8.84563e+02    -1.02398e+01
    1.43136e-02     2.45166e+03     1.18440e+00     2.45355e+03     0.00000e+00    -4.68943e+01     8.60901e+02    -1.01043e+01
    1.46882e-02     2.35439e+03     1.16853e+00     2.35617e+03     0.00000e+00    -4.67834e+01     8.37847e+02    -9.97037e+00
    1.50727e-02     2.26088e+03     1.15286e+00     2.26256e+03     0.00000e+00    -4.66711e+01     8.15385e+02    -9.83813e+00
    1.54672e-02     2.17099e+03     1.13738e+00     2.17257e+03     0.00000e+00    -4.65575e+01     7.93499e+02    -9.70752e+00
    1.58720e-02     2.08458e+03     1.12210e+00     2.08607e+03     0.00000e+00    -4.64424e+01     7.72177e+02    -9.57851e+00
    1.62874e-02     2.00152e+03     1.10700e+00     2.00292e+03     0.00000e+00    -4.63259e+01     7.51403e+02    -9.45110e+00
    1.67137e-02     1.92168e+03     1.09208e+00     1.92299e+03     0.00000e+00    -4.62080e+01     7.31163e+02    -9.32525e+00
    1.71512e-02     1.84493e+03     1.07736e+00     1.84616e+03     0.00000e+00    -4.60887e+01     7.11443e+02    -9.20094e+00
    1.76001e-02     1.77116e+03     1.06281e+00     1.77231e+03     0.00000e+00    -4.59679e+01     6.92231e+02    -9.07816e+00
    1.80608e-02     1.70026e+03     1.04844e+00     1.70133e+03     0.00000e+00    -4.58456e+01     6.73514e+02    -8.95689e+00
    1.85335e-02     1.63211e+03     1.03425e+00     1.63311e+03     0.00000e+00    -4.57219e+01     6.55279e+02    -8.83710e+00
    1.90186e-02     1.56661e+03     1.02023e+00     1.56754e+03     0.00000e+00    -4.55967e+01     6.37513e+02    -8.71878e+00
    1.95163e-02     1.50366e+03     1.00639e+00     1.50452e+03     0.00000e+00    -4.54700e+01     6.20205e+02    -8.60191e+00
    2.00272e-02     1.44316e+03     9.92714e-01     1.44396e+03     0.00000e+00    -4.53418e+01     6.03344e+02    -8.48646e+00
    2.05513e-02     1.38501e+03     9.79208e-01     1.38575e+03     0.00000e+00    -4.52120e+01     5.86917e+02    -8.37243e+00
    2.10892e-02     1.32914e+03     9.65866e-01     1.32982e+03     0.00000e+00    -4.50807e+01     5.70914e+02    -8.25979e+00
    2.16412e-02     1.27544e+03     9.52689e-01     1.27607e+03     0.00000e+00    -4.49479e+01     5.55324e+02    -8.14852e+00
    2.22077e-02     1.22384e+03     9.39672e-01     1.22441e+03     0.00000e+00    -4.48135e+01     5.40137e+02    -8.03860e+00
    2.27889e-02     1.17425e+03     9.26815e-01     1.17478e+03     0.00000e+00    -4.46776e+01     5.25342e+02    -7.93002e+00
    2.33854e-02     1.12660e+03     9.14115e-01     1.12708e+03     0.00000e+00    -4.45401e+01     5.10930e+02    -7.82277e+00
    2.39975e-02     1.08082e+03     9.01570e-01     1.08125e+03     0.00000e+00    -4.44009e+01     4.96890e+02    -7.71682e+00
    2.46256e-02     1.03683e+03     8.89178e-01     1.03722e+03     0.00000e+00    -4.42602e+01     4.83213e+02    -7.61215e+00
    2.52701e-02     9.94562e+02     8.76937e-01     9.94913e+02     0.00000e+00    -4.41179e+01     4.69891e+02    -7.50875e+00
    2.59315e-02     9.53954e+02     8.64845e-01     9.54266e+02     0.00000e+00    -4.39739e+01     4.56913e+02    -7.40661e+00
    2.66102e-02     9.14940e+02     8.52901e-01     9.15215e+02     0.00000e+00    -4.38283e+01     4.44272e+02    -7.30571e+00
    2.73067e-02     8.77460e+02     8.41102e-01     8.77699e+02     0.00000e+00    -4.36810e+01     4.31959e+02    -7.20602e+00
    2.80214e-02     8.41453e+02     8.29446e-01     8.41659e+02     0.00000e+00    -4.35321e+01     4.19965e+02    -7.10754e+00
    2.87549e-02     8.06865e+02     8.17932e-01     8.07038e+02     0.00000e+00    -4.33815e+01     4.08283e+02    -7.01025e+00
    2.95075e-02     7.73639e+02     8.06558e-01     7.73782e+02     0.00000e+00    -4.32292e+01     3.96904e+02    -6.91414e+00
    3.02798e-02     7.41724e+02     7.95322e-01     7.41839e+02     0.00000e+00    -4.30752e+01     3.85821e+02    -6.81918e+00
    3.10723e-02     7.11070e+02     7.84221e-01     7.11157e+02     0.00000e+00    -4.29195e+01     3.75026e+02    -6.72537e+00
    3.18856e-02     6.81627e+02     7.73256e-01     6.81688e+02     0.00000e+00    -4.27622e+01     3.64512e+02    -6.63268e+00
    3.27202e-02     6.53350e+02     7.62423e-01     6.53386e+02     0.00000e+00    -4.26030e+01     3.54272e+02    -6.54112e+00
    3.35766e-02     6.26193e+02     7.51721e-01     6.26206e+02     0.00000e+00    -4.24422e+01     3.44299e+02    -6.45065e+00
    3.44554e-02     6.00113e+02     7.41148e-01     6.00104e+02     0.00000e+00    -4.22796e+01     3.34587e+02    -6.36127e+00
    3.53572e-02     5.75069e+02     7.30703e-01     5.75039e+02     0.00000e+00    -4.21153e+01     3.25127e+02    -6.27296e+00
    3.62826e-02     5.51021e+02     7.20384e-01     5.50971e+02     0.00000e+00    -4.19492e+01     3.15916e+02    -6.18571e+00
    3.72323e-02     5.27930e+02     7.10190e-01     5.27861e+02     0.00000e+00    -4.17813e+01     3.06945e+02    -6.09950e+00
    3.82068e-02     5.05759e+02     7.00118e-01     5.05673e+02     0.00000e+00    -4.16116e+01     2.98209e+02    -6.01433e+00
    3.92068e-02     4.84473e+02     6.90168e-01     4.84371e+02     0.00000e+00    -4.14402e+01     2.89702e+02    -5.93017e+00
    4.02330e-02     4.64038e+02     6.80337e-01     4.63920e+02     0.00000e+00    -4.12670e+01     2.81418e+02    -5.84702e+00
    4.12860e-02     4.44421e+02     6.70625e-01     4.44288e+02     0.00000e+00    -4.10920e+01     2.73351e+02    -5.76486e+00
    4.23666e-02     4.25590e+02     6.61029e-01     4.25443e+02     0.00000e+00    -4.09151e+01     2.65497e+02    -5.68368e+00
    4.34755e-02     4.07515e+02     6.51549e-01     4.07355e+02     0.00000e+00    -4.07365e+01     2.57849e+02    -5.60347e+00
    4.46134e-02     3.90166e+02     6.42182e-01     3.89994e+02     0.00000e+00    -4.05560e+01     2.50403e+02    -5.52422e+00
    4.57811e-02     3.73516e+02     6.32928e-01     3.73332e+02     0.00000e+00    -4.03737e+01     2.43153e+02    -5.44591e+00
    4.69794e-02     3.57536e+02     6.23785e-01     3.57342e+02     0.00000e+00    -4.01896e+01     2.36094e+02    -5.36853e+00
    4.82090e-02     3.42203e+02     6.14751e-01     3.41998e+02     0.00000e+00    -4.00036e+01     2.29222e+02    -5.29207e+00
    4.94708e-02     3.27489e+02     6.05825e-01     3.27275e+02     0.00000e+00    -3.98158e+01     2.22532e+02    -5.21651e+00
    5.07657e-02     3.13371e+02     5.97007e-01     3.13149e+02     0.00000e+00    -3.96261e+01     2.16019e+02    -5.14186e+00
    5.20944e-02     2.99826e+02     5.88294e-01     2.99596e+02     0.00000e+00    -3.94346e+01     2.09679e+02    -5.06809e+00
