# All units in [AU] if not specified
{"name":"Al", "Z":13, "Zstar":4.227620490137321, "A":28,  "μ[AU]": 2.375e-01, "T[AU]": 1.838e-02, "rs[AU]": 3.000e+00 }
	 r[AU]  	 n[AU]  	 nf[AU]  	 nb[AU]     n_ion[AU]    (φ_e+φ_ions)[AU]   φtotal[AU]     δVxc/δρ[Au]  
   2.000000e-02    1.460754e+03    2.034805e+00    1.458977e+03   -6.322640e-45   -4.250217e+01    6.070645e+02   -8.520367e+00
   2.153336e-02    1.298523e+03    1.956464e+00    1.296795e+03   -7.538691e-45   -4.237717e+01    5.609040e+02   -8.196728e+00
   2.318427e-02    1.153748e+03    1.880832e+00    1.152069e+03   -8.508188e-45   -4.222117e+01    5.180705e+02   -7.884240e+00
   2.496176e-02    1.024584e+03    1.807808e+00    1.022954e+03   -9.185935e-45   -4.203518e+01    4.783281e+02   -7.582491e+00
   2.687552e-02    9.093793e+02    1.737297e+00    9.077991e+02   -9.525987e-45   -4.182015e+01    4.414580e+02   -7.291091e+00
   2.893601e-02    8.066562e+02    1.669208e+00    8.051254e+02   -9.483729e-45   -4.157696e+01    4.072569e+02   -7.009658e+00
   3.115447e-02    7.150918e+02    1.603450e+00    7.136104e+02   -9.018895e-45   -4.130639e+01    3.755359e+02   -6.737829e+00
   3.354302e-02    6.335024e+02    1.539940e+00    6.320701e+02   -8.099797e-45   -4.100917e+01    3.461196e+02   -6.475252e+00
   3.611469e-02    5.608293e+02    1.478596e+00    5.594451e+02   -6.709170e-45   -4.068598e+01    3.188451e+02   -6.221595e+00
   3.888352e-02    4.961237e+02    1.419340e+00    4.947873e+02   -4.852115e-45   -4.033744e+01    2.935611e+02   -5.976530e+00
   4.186463e-02    4.385379e+02    1.362095e+00    4.372484e+02   -2.566769e-45   -3.996414e+01    2.701272e+02   -5.739751e+00
   4.507430e-02    3.873124e+02    1.306790e+00    3.860691e+02    6.149995e-47   -3.956664e+01    2.484127e+02   -5.510958e+00
   4.853005e-02    3.417679e+02    1.253356e+00    3.405700e+02    2.881337e-45   -3.914545e+01    2.282965e+02   -5.289865e+00
   5.225074e-02    3.012967e+02    1.201726e+00    3.001433e+02    5.650807e-45   -3.870109e+01    2.096659e+02   -5.076200e+00
   5.625669e-02    2.653548e+02    1.151836e+00    2.642452e+02    8.005293e-45   -3.823405e+01    1.924162e+02   -4.869699e+00
   6.056977e-02    2.334559e+02    1.103625e+00    2.323888e+02    9.415817e-45   -3.774482e+01    1.764504e+02   -4.670113e+00
   6.521352e-02    2.051642e+02    1.057035e+00    2.041389e+02    9.135131e-45   -3.723389e+01    1.616779e+02   -4.477200e+00
   7.021330e-02    1.800905e+02    1.012010e+00    1.791059e+02    6.128231e-45   -3.670175e+01    1.480150e+02   -4.290731e+00
   7.559640e-02    1.578861e+02    9.684970e-01    1.569412e+02   -1.015741e-45   -3.614891e+01    1.353836e+02   -4.110486e+00
   8.139221e-02    1.382394e+02    9.264446e-01    1.373333e+02   -1.276252e-44   -3.557590e+01    1.237112e+02   -3.936255e+00
   8.763238e-02    1.208717e+02    8.858043e-01    1.200033e+02   -2.485006e-44   -3.498327e+01    1.129304e+02   -3.767838e+00
   9.435096e-02    1.055334e+02    8.465296e-01    1.047017e+02   -2.970705e-44   -3.437161e+01    1.029785e+02   -3.605044e+00
   1.015846e-01    9.200154e+01    8.085764e-01    9.120563e+01   -1.610932e-44   -3.374155e+01    9.379722e+01   -3.447691e+00
   1.093729e-01    8.007666e+01    7.719025e-01    7.931554e+01    3.020578e-44   -3.309374e+01    8.533233e+01   -3.295606e+00
   1.177583e-01    6.958052e+01    7.364679e-01    6.885315e+01    9.152263e-44   -3.242890e+01    7.753338e+01   -3.148625e+00
   1.267866e-01    6.035362e+01    7.022344e-01    5.965906e+01    1.026799e-43   -3.174780e+01    7.035339e+01   -3.006590e+00
   1.365070e-01    5.225354e+01    6.691658e-01    5.159080e+01   -3.502710e-44   -3.105124e+01    6.374863e+01   -2.869355e+00
   1.469727e-01    4.515294e+01    6.372277e-01    4.452105e+01   -3.235585e-43   -3.034011e+01    5.767835e+01   -2.736776e+00
   1.582408e-01    3.893806e+01    6.063875e-01    3.833609e+01   -3.510719e-43   -2.961534e+01    5.210461e+01   -2.608722e+00
   1.703728e-01    3.350733e+01    5.766142e-01    3.293435e+01    5.273587e-43   -2.887795e+01    4.699199e+01   -2.485064e+00
   1.834349e-01    2.877006e+01    5.478782e-01    2.822515e+01    1.528436e-42   -2.812899e+01    4.230751e+01   -2.365683e+00
   1.974984e-01    2.464531e+01    5.201518e-01    2.412756e+01   -8.423486e-43   -2.736961e+01    3.802037e+01   -2.250465e+00
   2.126402e-01    2.106089e+01    4.934083e-01    2.056941e+01   -5.674139e-42   -2.660100e+01    3.410180e+01   -2.139301e+00
   2.289428e-01    1.795247e+01    4.676226e-01    1.748636e+01    5.216596e-42   -2.582442e+01    3.052497e+01   -2.032091e+00
   2.464954e-01    1.526269e+01    4.427707e-01    1.482111e+01    2.038389e-41   -2.504121e+01    2.726478e+01   -1.928737e+00
   2.653937e-01    1.294054e+01    4.188295e-01    1.252262e+01   -5.327243e-41   -2.425274e+01    2.429777e+01   -1.829146e+00
   2.857408e-01    1.094062e+01    3.957774e-01    1.054553e+01    3.022264e-41   -2.346044e+01    2.160200e+01   -1.733231e+00
   3.076479e-01    9.222614e+00    3.735932e-01    8.849531e+00    4.016571e-40   -2.266581e+01    1.915695e+01   -1.640909e+00
   3.312346e-01    7.750729e+00    3.522568e-01    7.398836e+00   -2.399304e-40   -2.187035e+01    1.694342e+01   -1.552099e+00
   3.566297e-01    6.493240e+00    3.317488e-01    6.161742e+00    7.627941e-39   -2.107564e+01    1.494341e+01   -1.466725e+00
   3.839717e-01    5.422082e+00    3.120500e-01    5.110189e+00    1.124008e-38   -2.028324e+01    1.314009e+01   -1.384713e+00
   4.134099e-01    4.512436e+00    2.931422e-01    4.219383e+00    1.140694e-37   -1.949475e+01    1.151770e+01   -1.305990e+00
   4.451052e-01    3.742426e+00    2.750069e-01    3.467457e+00    1.408677e-37   -1.871176e+01    1.006149e+01   -1.230489e+00
   4.792304e-01    3.092792e+00    2.576264e-01    2.835165e+00    1.607968e-36   -1.793584e+01    8.757649e+00   -1.158141e+00
   5.159720e-01    2.546617e+00    2.409826e-01    2.305606e+00   -4.373822e-37   -1.716857e+01    7.593265e+00   -1.088879e+00
   5.555304e-01    2.089076e+00    2.250576e-01    1.863973e+00    4.892250e-36   -1.641146e+01    6.556266e+00   -1.022637e+00
   5.981217e-01    1.707217e+00    2.098332e-01    1.497327e+00    1.460193e-34   -1.566600e+01    5.635377e+00   -9.593509e-01
   6.439784e-01    1.389751e+00    1.952911e-01    1.194399e+00   -8.111251e-35   -1.493359e+01    4.820085e+00   -8.989542e-01
   6.933508e-01    1.126874e+00    1.814123e-01    9.453991e-01   -8.023665e-33   -1.421560e+01    4.100591e+00   -8.413826e-01
   7.465085e-01    9.100931e-01    1.681775e-01    7.418555e-01   -8.577573e-32   -1.351328e+01    3.467786e+00   -7.865704e-01
   8.037417e-01    7.320850e-01    1.555665e-01    5.764617e-01   -9.157120e-31   -1.282781e+01    2.913213e+00   -7.344526e-01
   8.653628e-01    5.867023e-01    1.435720e-01    4.430788e-01   -1.509274e-29   -1.216023e+01    2.429037e+00   -6.855370e-01
   9.317083e-01    4.684399e-01    1.321668e-01    3.362268e-01   -2.882747e-28   -1.151150e+01    2.008028e+00   -6.394165e-01
   1.003140e+00    3.726553e-01    1.213259e-01    2.512890e-01    1.575306e-27   -1.088244e+01    1.643530e+00   -5.958580e-01
   1.080049e+00    2.954527e-01    1.110269e-01    1.843911e-01    8.198463e-25   -1.027373e+01    1.329431e+00   -5.548134e-01
   1.162854e+00    2.335411e-01    1.012472e-01    1.322648e-01    9.839196e-23   -9.685920e+00    1.060139e+00   -5.162409e-01
   1.252007e+00    1.841553e-01    9.196303e-02    9.216808e-02    1.395896e-20   -9.119428e+00    8.305644e-01   -4.801086e-01
   1.347996e+00    1.449838e-01    8.315024e-02    6.181381e-02    1.377860e-18   -8.574521e+00    6.360911e-01   -4.463986e-01
   1.451344e+00    1.141058e-01    7.478371e-02    3.930631e-02    1.213680e-16   -8.051322e+00    4.725603e-01   -4.151133e-01
   1.562615e+00    8.993581e-02    6.683686e-02    2.308645e-02    8.311257e-15   -7.549803e+00    3.362505e-01   -3.862830e-01
   1.682418e+00    7.117434e-02    5.927913e-02    1.188557e-02    4.903823e-13   -7.069782e+00    2.238608e-01   -3.599772e-01
   1.811405e+00    5.676698e-02    5.206588e-02    4.693764e-03    2.558728e-11   -6.610918e+00    1.324987e-01   -3.363190e-01
   1.950281e+00    4.586847e-02    4.508551e-02    7.775191e-04    1.257579e-09   -6.172699e+00    5.967296e-02   -3.155004e-01
   2.099805e+00    3.781447e-02    3.781054e-02   -3.610870e-20    7.646615e-08   -5.754422e+00    3.295276e-03   -2.977990e-01
   2.260793e+00    3.209940e-02    3.209667e-02   -1.565942e-19    2.395287e-06   -5.355167e+00   -3.830457e-02   -2.835858e-01
   2.434123e+00    2.836163e-02    2.835984e-02   -2.673090e-19    3.104543e-05   -4.973745e+00   -6.634498e-02   -2.733136e-01
   2.620741e+00    2.637287e-02    2.637183e-02   -3.360892e-19    2.116143e-04   -4.608657e+00   -8.156214e-02   -2.674610e-01
   2.821668e+00    2.601187e-02    2.601142e-02   -3.493037e-19    8.432316e-04   -4.258214e+00   -8.434336e-02   -2.663661e-01
   3.037999e+00    2.718392e-02    2.718393e-02   -3.071562e-19    2.280103e-03   -3.921115e+00   -7.531551e-02   -2.698835e-01
   3.270916e+00    2.966972e-02    2.967008e-02   -2.257372e-19    4.513053e-03   -3.597514e+00   -5.642524e-02   -2.770096e-01
   3.521690e+00    3.300281e-02    3.300341e-02   -1.333997e-19    7.117220e-03   -3.289672e+00   -3.159539e-02   -2.859431e-01
   3.791690e+00    3.646391e-02    3.646463e-02   -5.871735e-20    9.354752e-03   -3.001581e+00   -6.364281e-03   -2.945819e-01
   4.082391e+00    3.929722e-02    3.929797e-02   -1.604001e-20    1.072347e-02   -2.737169e+00    1.390661e-02   -3.012410e-01
   4.395378e+00    4.098796e-02    4.098864e-02   -1.383371e-21    1.117074e-02   -2.498470e+00    2.584902e-02   -3.050582e-01
   4.732363e+00    4.140171e-02    4.140230e-02    4.034306e-25    1.086646e-02   -2.284955e+00    2.875399e-02   -3.059757e-01
   5.095182e+00    4.080208e-02    4.080258e-02   -2.418041e-21    1.020845e-02   -2.093557e+00    2.453915e-02   -3.046439e-01
   5.485819e+00    3.965193e-02    3.965226e-02   -1.213801e-20    9.496973e-03   -1.919996e+00    1.641735e-02   -3.020511e-01
   5.906405e+00    3.843230e-02    3.843247e-02   -2.704029e-20    8.928347e-03   -1.759919e+00    7.748128e-03   -2.992444e-01
   6.359236e+00    3.751213e-02    3.751214e-02   -4.077897e-20    8.602096e-03   -1.609770e+00    1.167431e-03   -2.970858e-01
   6.846784e+00    3.707394e-02    3.707391e-02   -4.799833e-20    8.533572e-03   -1.467347e+00   -1.978934e-03   -2.960450e-01
   7.371712e+00    3.708470e-02    3.708463e-02   -4.781688e-20    8.652235e-03   -1.332067e+00   -1.902049e-03   -2.960707e-01
   7.936886e+00    3.733507e-02    3.733499e-02   -4.364719e-20    8.825945e-03   -1.204693e+00   -1.039885e-04   -2.966663e-01
   8.545389e+00    3.756763e-02    3.756754e-02   -3.989732e-20    8.933811e-03   -1.086391e+00    1.563875e-03   -2.972170e-01
   9.200545e+00    3.763520e-02    3.763517e-02   -3.882998e-20    8.939739e-03   -9.775780e-01    2.048339e-03   -2.973766e-01
   9.905931e+00    3.756209e-02    3.756207e-02   -3.998454e-20    8.889985e-03   -8.774872e-01    1.524589e-03   -2.972039e-01
   1.066540e+01    3.746430e-02    3.746429e-02   -4.154738e-20    8.848452e-03   -7.847379e-01    8.238245e-04   -2.969726e-01
   1.148309e+01    3.742336e-02    3.742334e-02   -4.220840e-20    8.841536e-03   -6.982360e-01    5.300968e-04   -2.968756e-01
   1.236347e+01    3.743094e-02    3.743094e-02   -4.208563e-20    8.852442e-03   -6.175666e-01    5.845371e-04   -2.968936e-01
   1.331135e+01    3.743839e-02    3.743838e-02   -4.196518e-20    8.857093e-03   -5.426386e-01    6.379964e-04   -2.969113e-01
   1.433191e+01    3.742769e-02    3.742766e-02   -4.213824e-20    8.852647e-03   -4.731725e-01    5.611957e-04   -2.968859e-01
   1.543070e+01    3.741455e-02    3.741453e-02   -4.235110e-20    8.848637e-03   -4.086760e-01    4.668830e-04   -2.968548e-01
   1.661374e+01    3.740872e-02    3.740870e-02   -4.244567e-20    8.847971e-03   -3.487265e-01    4.250334e-04   -2.968410e-01
   1.788748e+01    3.740455e-02    3.740452e-02   -4.251344e-20    8.847284e-03   -2.930369e-01    3.950657e-04   -2.968311e-01
   1.925887e+01    3.739979e-02    3.739976e-02   -4.259059e-20    8.846236e-03   -2.413192e-01    3.609726e-04   -2.968198e-01
   2.073541e+01    3.739461e-02    3.739482e-02   -4.267481e-20    8.844897e-03   -1.932898e-01    3.237816e-04   -2.968075e-01
   2.232515e+01    3.739204e-02    3.739198e-02   -4.271650e-20    8.844557e-03   -1.486643e-01    3.053793e-04   -2.968014e-01
   2.403677e+01    3.738824e-02    3.738822e-02   -4.277840e-20    8.843611e-03   -1.072267e-01    2.780664e-04   -2.967924e-01
   2.587961e+01    3.738516e-02    3.738517e-02   -4.282847e-20    8.843043e-03   -6.873656e-02    2.559869e-04   -2.967851e-01
   2.786375e+01    3.737963e-02    3.737962e-02   -4.291850e-20    8.842486e-03   -3.300641e-02    2.163062e-04   -2.967720e-01
   3.000000e+01    3.734947e-02    3.734945e-02   -4.341040e-20    8.841941e-03    0.000000e+00    0.000000e+00   -2.967005e-01
