# Model replicates Starrett & Saumon 2014 'A simple method for determining the ionic structure of warm dense matter'
# Convergence: Err(φ)=3.360e-11, Err(n_e)=9.997e-11, Err(IET)=9.845e-13, Q_net=1.397e-08
# {"name":"CS2014_Ar", "Z":18, "Zstar":11.332504556706345, "A":39.948,  "μ[AU]": -2.0489905893e+01, "Te[AU]": 3.124e+00, "Ti[AU]": 3.124e+00, "rs[AU]": 1.372e+01 }
   r[AU]           ne_full[AU]     n_ion[AU]       ne_ext[AU]      ne_PA[AU]       ne_scr[AU]      
   1.000000e-04    7.298369e+06    7.299612e+06    7.965930e-04    7.298369e+06   -1.243043e+03
   1.007094e-04    7.221381e+06    7.222617e+06    7.965930e-04    7.221381e+06   -1.236674e+03
   1.014239e-04    7.145203e+06    7.146435e+06    7.965930e-04    7.145203e+06   -1.231499e+03
   1.021434e-04    7.069828e+06    7.071056e+06    7.965930e-04    7.069828e+06   -1.227485e+03
   1.028681e-04    6.995247e+06    6.996472e+06    7.965930e-04    6.995247e+06   -1.224593e+03
   1.035978e-04    6.921451e+06    6.922674e+06    7.965930e-04    6.921451e+06   -1.222789e+03
   1.043328e-04    6.848438e+06    6.849655e+06    7.965930e-04    6.848438e+06   -1.216911e+03
   1.050730e-04    6.776195e+06    6.777406e+06    7.965930e-04    6.776195e+06   -1.210830e+03
   1.058184e-04    6.704713e+06    6.705919e+06    7.965930e-04    6.704713e+06   -1.205869e+03
   1.065691e-04    6.633984e+06    6.635186e+06    7.965930e-04    6.633984e+06   -1.201991e+03
   1.073251e-04    6.563999e+06    6.565198e+06    7.965930e-04    6.563999e+06   -1.199178e+03
   1.080865e-04    6.494752e+06    6.495949e+06    7.965930e-04    6.494752e+06   -1.196954e+03
   1.088533e-04    6.426239e+06    6.427431e+06    7.965930e-04    6.426239e+06   -1.191320e+03
   1.096256e-04    6.358449e+06    6.359634e+06    7.965930e-04    6.358449e+06   -1.185508e+03
   1.104033e-04    6.291373e+06    6.292553e+06    7.965930e-04    6.291373e+06   -1.180744e+03
   1.111865e-04    6.225003e+06    6.226180e+06    7.965930e-04    6.225003e+06   -1.177002e+03
   1.119753e-04    6.159332e+06    6.160506e+06    7.965930e-04    6.159332e+06   -1.174334e+03
   1.127697e-04    6.094353e+06    6.095525e+06    7.965930e-04    6.094353e+06   -1.171675e+03
   1.135697e-04    6.030063e+06    6.031229e+06    7.965930e-04    6.030063e+06   -1.166264e+03
   1.143754e-04    5.966451e+06    5.967612e+06    7.965930e-04    5.966451e+06   -1.160704e+03
   1.151868e-04    5.903509e+06    5.904665e+06    7.965930e-04    5.903509e+06   -1.156128e+03
   1.160040e-04    5.841230e+06    5.842383e+06    7.965930e-04    5.841230e+06   -1.152572e+03
   1.168270e-04    5.779607e+06    5.780757e+06    7.965930e-04    5.779607e+06   -1.150019e+03
   1.176558e-04    5.718634e+06    5.719781e+06    7.965930e-04    5.718634e+06   -1.147033e+03
   1.184905e-04    5.658306e+06    5.659448e+06    7.965930e-04    5.658306e+06   -1.141729e+03
   1.193311e-04    5.598615e+06    5.599751e+06    7.965930e-04    5.598615e+06   -1.136403e+03
   1.201777e-04    5.539552e+06    5.540684e+06    7.965930e-04    5.539552e+06   -1.132052e+03
   1.210302e-04    5.481111e+06    5.482240e+06    7.965930e-04    5.481111e+06   -1.128680e+03
   1.218889e-04    5.423286e+06    5.424413e+06    7.965930e-04    5.423286e+06   -1.126180e+03
   1.227536e-04    5.366072e+06    5.367195e+06    7.965930e-04    5.366072e+06   -1.122984e+03
   1.236244e-04    5.309463e+06    5.310580e+06    7.965930e-04    5.309463e+06   -1.117704e+03
   1.245015e-04    5.253451e+06    5.254563e+06    7.965930e-04    5.253451e+06   -1.112627e+03
   1.253847e-04    5.198028e+06    5.199137e+06    7.965930e-04    5.198028e+06   -1.108520e+03
   1.262742e-04    5.143189e+06    5.144295e+06    7.965930e-04    5.143189e+06   -1.105256e+03
   1.271701e-04    5.088928e+06    5.090031e+06    7.965930e-04    5.088928e+06   -1.102802e+03
   1.280722e-04    5.035240e+06    5.036340e+06    7.965930e-04    5.035240e+06   -1.099508e+03
   1.289808e-04    4.982121e+06    4.983215e+06    7.965930e-04    4.982121e+06   -1.094180e+03
   1.298959e-04    4.929561e+06    4.930650e+06    7.965930e-04    4.929561e+06   -1.089415e+03
   1.308174e-04    4.877555e+06    4.878640e+06    7.965930e-04    4.877555e+06   -1.085462e+03
   1.317454e-04    4.826096e+06    4.827178e+06    7.965930e-04    4.826096e+06   -1.082295e+03
   1.326801e-04    4.775179e+06    4.776259e+06    7.965930e-04    4.775179e+06   -1.079888e+03
   1.336214e-04    4.724801e+06    4.725877e+06    7.965930e-04    4.724801e+06   -1.076576e+03
   1.345693e-04    4.674955e+06    4.676026e+06    7.965930e-04    4.674955e+06   -1.071248e+03
   1.355240e-04    4.625635e+06    4.626701e+06    7.965930e-04    4.625635e+06   -1.066675e+03
   1.364854e-04    4.576834e+06    4.577897e+06    7.965930e-04    4.576834e+06   -1.062864e+03
   1.374537e-04    4.528547e+06    4.529607e+06    7.965930e-04    4.528547e+06   -1.059787e+03
   1.384288e-04    4.480769e+06    4.481826e+06    7.965930e-04    4.480769e+06   -1.057427e+03
   1.394109e-04    4.433495e+06    4.434549e+06    7.965930e-04    4.433495e+06   -1.053921e+03
   1.403999e-04    4.386722e+06    4.387771e+06    7.965930e-04    4.386722e+06   -1.048788e+03
   1.413960e-04    4.340442e+06    4.341486e+06    7.965930e-04    4.340442e+06   -1.044396e+03
   1.423991e-04    4.294649e+06    4.295690e+06    7.965930e-04    4.294649e+06   -1.040716e+03
   1.434093e-04    4.249338e+06    4.250376e+06    7.965930e-04    4.249338e+06   -1.037731e+03
   1.444267e-04    4.204505e+06    4.205540e+06    7.965930e-04    4.204505e+06   -1.035338e+03
   1.454513e-04    4.160145e+06    4.161177e+06    7.965930e-04    4.160145e+06   -1.031708e+03
   1.464832e-04    4.116255e+06    4.117282e+06    7.965930e-04    4.116255e+06   -1.026793e+03
   1.475224e-04    4.072827e+06    4.073850e+06    7.965930e-04    4.072827e+06   -1.022569e+03
   1.485689e-04    4.029857e+06    4.030876e+06    7.965930e-04    4.029857e+06   -1.019017e+03
   1.496229e-04    3.987339e+06    3.988355e+06    7.965930e-04    3.987339e+06   -1.016163e+03
   1.506844e-04    3.945269e+06    3.946283e+06    7.965930e-04    3.945269e+06   -1.013718e+03
   1.517534e-04    3.903644e+06    3.904654e+06    7.965930e-04    3.903644e+06   -1.009957e+03
   1.528300e-04    3.862459e+06    3.863464e+06    7.965930e-04    3.862459e+06   -1.005250e+03
   1.539142e-04    3.821708e+06    3.822709e+06    7.965930e-04    3.821708e+06   -1.001190e+03
   1.550061e-04    3.781386e+06    3.782384e+06    7.965930e-04    3.781386e+06   -9.977907e+02
   1.561058e-04    3.741489e+06    3.742484e+06    7.965930e-04    3.741489e+06   -9.950589e+02
   1.572133e-04    3.702012e+06    3.703004e+06    7.965930e-04    3.702012e+06   -9.925783e+02
   1.583286e-04    3.662953e+06    3.663941e+06    7.965930e-04    3.662953e+06   -9.886695e+02
   1.594518e-04    3.624306e+06    3.625290e+06    7.965930e-04    3.624306e+06   -9.841585e+02
   1.605830e-04    3.586067e+06    3.587047e+06    7.965930e-04    3.586067e+06   -9.802724e+02
   1.617222e-04    3.548230e+06    3.549207e+06    7.965930e-04    3.548230e+06   -9.770367e+02
   1.628695e-04    3.510792e+06    3.511766e+06    7.965930e-04    3.510792e+06   -9.743759e+02
   1.640250e-04    3.473748e+06    3.474720e+06    7.965930e-04    3.473748e+06   -9.719079e+02
   1.651886e-04    3.437097e+06    3.438065e+06    7.965930e-04    3.437097e+06   -9.678316e+02
   1.663605e-04    3.400833e+06    3.401796e+06    7.965930e-04    3.400833e+06   -9.635066e+02
   1.675408e-04    3.364950e+06    3.365910e+06    7.965930e-04    3.364950e+06   -9.598291e+02
   1.687293e-04    3.329446e+06    3.330402e+06    7.965930e-04    3.329446e+06   -9.566998e+02
   1.699264e-04    3.294315e+06    3.295269e+06    7.965930e-04    3.294315e+06   -9.541043e+02
   1.711319e-04    3.259555e+06    3.260506e+06    7.965930e-04    3.259555e+06   -9.516865e+02
   1.723459e-04    3.225163e+06    3.226110e+06    7.965930e-04    3.225163e+06   -9.474339e+02
   1.735686e-04    3.191134e+06    3.192077e+06    7.965930e-04    3.191134e+06   -9.433489e+02
   1.748000e-04    3.157463e+06    3.158403e+06    7.965930e-04    3.157463e+06   -9.398028e+02
   1.760400e-04    3.124147e+06    3.125083e+06    7.965930e-04    3.124147e+06   -9.367712e+02
   1.772889e-04    3.091181e+06    3.092116e+06    7.965930e-04    3.091181e+06   -9.342410e+02
   1.785467e-04    3.058564e+06    3.059495e+06    7.965930e-04    3.058564e+06   -9.318977e+02
   1.798133e-04    3.026292e+06    3.027219e+06    7.965930e-04    3.026292e+06   -9.275276e+02
   1.810890e-04    2.994360e+06    2.995284e+06    7.965930e-04    2.994360e+06   -9.236044e+02
   1.823737e-04    2.962765e+06    2.963685e+06    7.965930e-04    2.962765e+06   -9.201813e+02
   1.836675e-04    2.931502e+06    2.932419e+06    7.965930e-04    2.931502e+06   -9.172457e+02
   1.849705e-04    2.900569e+06    2.901483e+06    7.965930e-04    2.900569e+06   -9.147798e+02
   1.862827e-04    2.869961e+06    2.870874e+06    7.965930e-04    2.869961e+06   -9.122985e+02
   1.876043e-04    2.839679e+06    2.840587e+06    7.965930e-04    2.839679e+06   -9.080437e+02
   1.889352e-04    2.809715e+06    2.810620e+06    7.965930e-04    2.809715e+06   -9.042679e+02
   1.902756e-04    2.780067e+06    2.780968e+06    7.965930e-04    2.780067e+06   -9.009628e+02
   1.916254e-04    2.750732e+06    2.751630e+06    7.965930e-04    2.750732e+06   -8.981135e+02
   1.929849e-04    2.721705e+06    2.722601e+06    7.965930e-04    2.721705e+06   -8.957282e+02
   1.943540e-04    2.692985e+06    2.693878e+06    7.965930e-04    2.692985e+06   -8.930471e+02
   1.957328e-04    2.664569e+06    2.665458e+06    7.965930e-04    2.664569e+06   -8.889616e+02
   1.971214e-04    2.636452e+06    2.637337e+06    7.965930e-04    2.636452e+06   -8.853294e+02
   1.985198e-04    2.608631e+06    2.609514e+06    7.965930e-04    2.608631e+06   -8.821376e+02
   1.999282e-04    2.581104e+06    2.581983e+06    7.965930e-04    2.581104e+06   -8.793982e+02
   2.013465e-04    2.553866e+06    2.554743e+06    7.965930e-04    2.553866e+06   -8.770969e+02
   2.027750e-04    2.526917e+06    2.527791e+06    7.965930e-04    2.526917e+06   -8.742063e+02
   2.042135e-04    2.500252e+06    2.501122e+06    7.965930e-04    2.500252e+06   -8.702841e+02
   2.056623e-04    2.473868e+06    2.474735e+06    7.965930e-04    2.473868e+06   -8.667839e+02
   2.071213e-04    2.447763e+06    2.448626e+06    7.965930e-04    2.447763e+06   -8.637142e+02
   2.085907e-04    2.421932e+06    2.422793e+06    7.965930e-04    2.421932e+06   -8.610906e+02
   2.100705e-04    2.396373e+06    2.397232e+06    7.965930e-04    2.396373e+06   -8.588518e+02
   2.115608e-04    2.371085e+06    2.371941e+06    7.965930e-04    2.371085e+06   -8.557625e+02
   2.130617e-04    2.346064e+06    2.346916e+06    7.965930e-04    2.346064e+06   -8.519934e+02
   2.145732e-04    2.321307e+06    2.322155e+06    7.965930e-04    2.321307e+06   -8.486290e+02
   2.160954e-04    2.296810e+06    2.297656e+06    7.965930e-04    2.296810e+06   -8.457035e+02
   2.176285e-04    2.272571e+06    2.273414e+06    7.965930e-04    2.272571e+06   -8.431530e+02
   2.191724e-04    2.248588e+06    2.249429e+06    7.965930e-04    2.248588e+06   -8.409664e+02
   2.207273e-04    2.224859e+06    2.225696e+06    7.965930e-04    2.224859e+06   -8.377050e+02
   2.222932e-04    2.201380e+06    2.202214e+06    7.965930e-04    2.201380e+06   -8.340875e+02
   2.238702e-04    2.178149e+06    2.178979e+06    7.965930e-04    2.178149e+06   -8.308933e+02
   2.254584e-04    2.155162e+06    2.155990e+06    7.965930e-04    2.155162e+06   -8.280601e+02
   2.270579e-04    2.132417e+06    2.133243e+06    7.965930e-04    2.132417e+06   -8.255790e+02
   2.286687e-04    2.109912e+06    2.110736e+06    7.965930e-04    2.109912e+06   -8.234401e+02
   2.302910e-04    2.087646e+06    2.088466e+06    7.965930e-04    2.087646e+06   -8.200455e+02
   2.319247e-04    2.065614e+06    2.066431e+06    7.965930e-04    2.065614e+06   -8.166032e+02
   2.335701e-04    2.043815e+06    2.044628e+06    7.965930e-04    2.043815e+06   -8.135199e+02
   2.352271e-04    2.022245e+06    2.023056e+06    7.965930e-04    2.022245e+06   -8.107779e+02
   2.368959e-04    2.000902e+06    2.001711e+06    7.965930e-04    2.000902e+06   -8.083628e+02
   2.385765e-04    1.979785e+06    1.980591e+06    7.965930e-04    1.979785e+06   -8.062694e+02
   2.402690e-04    1.958891e+06    1.959694e+06    7.965930e-04    1.958891e+06   -8.027888e+02
   2.419736e-04    1.938217e+06    1.939017e+06    7.965930e-04    1.938217e+06   -7.994819e+02
   2.436902e-04    1.917762e+06    1.918558e+06    7.965930e-04    1.917762e+06   -7.965040e+02
   2.454190e-04    1.897522e+06    1.898315e+06    7.965930e-04    1.897522e+06   -7.938459e+02
   2.471601e-04    1.877494e+06    1.878286e+06    7.965930e-04    1.877494e+06   -7.914971e+02
   2.489135e-04    1.857678e+06    1.858468e+06    7.965930e-04    1.857678e+06   -7.893186e+02
   2.506794e-04    1.838073e+06    1.838859e+06    7.965930e-04    1.838073e+06   -7.859051e+02
   2.524578e-04    1.818674e+06    1.819456e+06    7.965930e-04    1.818674e+06   -7.827176e+02
   2.542488e-04    1.799479e+06    1.800259e+06    7.965930e-04    1.799479e+06   -7.798402e+02
   2.560525e-04    1.780486e+06    1.781263e+06    7.965930e-04    1.780486e+06   -7.772626e+02
   2.578690e-04    1.761694e+06    1.762468e+06    7.965930e-04    1.761694e+06   -7.749974e+02
   2.596984e-04    1.743099e+06    1.743872e+06    7.965930e-04    1.743099e+06   -7.726690e+02
   2.615408e-04    1.724702e+06    1.725471e+06    7.965930e-04    1.724702e+06   -7.693742e+02
   2.633963e-04    1.706499e+06    1.707265e+06    7.965930e-04    1.706499e+06   -7.663038e+02
   2.652649e-04    1.688487e+06    1.689250e+06    7.965930e-04    1.688487e+06   -7.635224e+02
   2.671468e-04    1.670665e+06    1.671426e+06    7.965930e-04    1.670665e+06   -7.610334e+02
   2.690420e-04    1.653031e+06    1.653790e+06    7.965930e-04    1.653031e+06   -7.588495e+02
   2.709506e-04    1.635583e+06    1.636339e+06    7.965930e-04    1.635583e+06   -7.563781e+02
   2.728729e-04    1.618320e+06    1.619073e+06    7.965930e-04    1.618320e+06   -7.531923e+02
   2.748087e-04    1.601238e+06    1.601989e+06    7.965930e-04    1.601238e+06   -7.502311e+02
   2.767583e-04    1.584337e+06    1.585085e+06    7.965930e-04    1.584337e+06   -7.475470e+02
   2.787217e-04    1.567614e+06    1.568359e+06    7.965930e-04    1.567614e+06   -7.451604e+02
   2.806990e-04    1.551066e+06    1.551809e+06    7.965930e-04    1.551066e+06   -7.430300e+02
   2.826904e-04    1.534694e+06    1.535435e+06    7.965930e-04    1.534694e+06   -7.404350e+02
   2.846959e-04    1.518495e+06    1.519232e+06    7.965930e-04    1.518495e+06   -7.373525e+02
   2.867156e-04    1.502467e+06    1.503201e+06    7.965930e-04    1.502467e+06   -7.344934e+02
   2.887497e-04    1.486607e+06    1.487339e+06    7.965930e-04    1.486607e+06   -7.319297e+02
   2.907981e-04    1.470915e+06    1.471644e+06    7.965930e-04    1.470915e+06   -7.296111e+02
   2.928612e-04    1.455387e+06    1.456115e+06    7.965930e-04    1.455387e+06   -7.275331e+02
   2.949388e-04    1.440025e+06    1.440749e+06    7.965930e-04    1.440025e+06   -7.248316e+02
   2.970312e-04    1.424824e+06    1.425546e+06    7.965930e-04    1.424824e+06   -7.218441e+02
   2.991384e-04    1.409784e+06    1.410503e+06    7.965930e-04    1.409784e+06   -7.191169e+02
   3.012606e-04    1.394902e+06    1.395618e+06    7.965930e-04    1.394902e+06   -7.166324e+02
   3.033978e-04    1.380177e+06    1.380891e+06    7.965930e-04    1.380177e+06   -7.143805e+02
   3.055502e-04    1.365607e+06    1.366319e+06    7.965930e-04    1.365607e+06   -7.123519e+02
   3.077179e-04    1.351191e+06    1.351900e+06    7.965930e-04    1.351191e+06   -7.095555e+02
   3.099010e-04    1.336927e+06    1.337634e+06    7.965930e-04    1.336927e+06   -7.066885e+02
   3.120995e-04    1.322814e+06    1.323518e+06    7.965930e-04    1.322814e+06   -7.040556e+02
   3.143136e-04    1.308850e+06    1.309551e+06    7.965930e-04    1.308850e+06   -7.016480e+02
   3.165435e-04    1.295032e+06    1.295732e+06    7.965930e-04    1.295032e+06   -6.994581e+02
   3.187891e-04    1.281360e+06    1.282058e+06    7.965930e-04    1.281360e+06   -6.974791e+02
   3.210507e-04    1.267833e+06    1.268445e+06    7.965930e-04    1.267833e+06   -6.118195e+02
   3.233283e-04    1.254449e+06    1.254449e+06    7.965930e-04    1.254449e+06    1.450865e-01
   3.256221e-04    1.241206e+06    1.241206e+06    7.965930e-04    1.241206e+06    1.446816e-01
   3.279322e-04    1.228102e+06    1.228102e+06    7.965930e-04    1.228102e+06    1.439879e-01
   3.302587e-04    1.215136e+06    1.215136e+06    7.965930e-04    1.215136e+06    1.430180e-01
   3.326016e-04    1.202307e+06    1.202307e+06    7.965930e-04    1.202307e+06    1.418872e-01
   3.349612e-04    1.189614e+06    1.189614e+06    7.965930e-04    1.189614e+06    1.419694e-01
   3.373375e-04    1.177055e+06    1.177055e+06    7.965930e-04    1.177055e+06    1.418057e-01
   3.397307e-04    1.164628e+06    1.164628e+06    7.965930e-04    1.164628e+06    1.413645e-01
   3.421408e-04    1.152332e+06    1.152332e+06    7.965930e-04    1.152332e+06    1.406539e-01
   3.445681e-04    1.140166e+06    1.140166e+06    7.965930e-04    1.140166e+06    1.396705e-01
   3.470126e-04    1.128128e+06    1.128128e+06    7.965930e-04    1.128128e+06    1.387535e-01
   3.494744e-04    1.116218e+06    1.116217e+06    7.965930e-04    1.116218e+06    1.387987e-01
   3.519537e-04    1.104433e+06    1.104432e+06    7.965930e-04    1.104433e+06    1.385857e-01
   3.544505e-04    1.092772e+06    1.092772e+06    7.965930e-04    1.092772e+06    1.381153e-01
   3.569651e-04    1.081234e+06    1.081234e+06    7.965930e-04    1.081234e+06    1.373578e-01
   3.594975e-04    1.069817e+06    1.069817e+06    7.965930e-04    1.069817e+06    1.363966e-01
   3.620479e-04    1.058521e+06    1.058521e+06    7.965930e-04    1.058521e+06    1.357232e-01
   3.646164e-04    1.047345e+06    1.047345e+06    7.965930e-04    1.047345e+06    1.356969e-01
   3.672031e-04    1.036287e+06    1.036287e+06    7.965930e-04    1.036287e+06    1.354301e-01
   3.698082e-04    1.025345e+06    1.025345e+06    7.965930e-04    1.025345e+06    1.349260e-01
   3.724317e-04    1.014518e+06    1.014518e+06    7.965930e-04    1.014518e+06    1.341545e-01
   3.750738e-04    1.003805e+06    1.003805e+06    7.965930e-04    1.003805e+06    1.331852e-01
   3.777347e-04    9.932061e+05    9.932060e+05    7.965930e-04    9.932061e+05    1.327012e-01
   3.804145e-04    9.827189e+05    9.827188e+05    7.965930e-04    9.827189e+05    1.326333e-01
   3.831133e-04    9.723422e+05    9.723420e+05    7.965930e-04    9.723422e+05    1.323328e-01
   3.858312e-04    9.620747e+05    9.620746e+05    7.965930e-04    9.620747e+05    1.317755e-01
   3.885684e-04    9.519154e+05    9.519153e+05    7.965930e-04    9.519154e+05    1.309958e-01
   3.913250e-04    9.418632e+05    9.418631e+05    7.965930e-04    9.418632e+05    1.300692e-01
   3.941012e-04    9.319174e+05    9.319173e+05    7.965930e-04    9.319174e+05    1.297512e-01
   3.968971e-04    9.220767e+05    9.220766e+05    7.965930e-04    9.220767e+05    1.296325e-01
   3.997128e-04    9.123397e+05    9.123395e+05    7.965930e-04    9.123397e+05    1.292711e-01
   4.025485e-04    9.027052e+05    9.027050e+05    7.965930e-04    9.027052e+05    1.286895e-01
   4.054043e-04    8.931722e+05    8.931720e+05    7.965930e-04    8.931722e+05    1.279032e-01
   4.082804e-04    8.837397e+05    8.837396e+05    7.965930e-04    8.837397e+05    1.270350e-01
   4.111768e-04    8.744072e+05    8.744071e+05    7.965930e-04    8.744072e+05    1.268497e-01
   4.140939e-04    8.651731e+05    8.651730e+05    7.965930e-04    8.651731e+05    1.266655e-01
   4.170316e-04    8.560363e+05    8.560362e+05    7.965930e-04    8.560363e+05    1.262661e-01
