# Model replicates Starrett & Saumon 2014 'A simple method for determining the ionic structure of warm dense matter'
# Convergence: Err(φ)=7.231e-11, Err(n_e)=1.204e-11, Err(IET)=9.912e-13, Q_net=-1.702e-10
# {"name":"CS2014_Li", "Z":3, "Zstar":0.7499826862649599, "A":6.941,  "μ[AU]": 9.2684353114e-02, "Te[AU]": 1.984e-03, "Ti[AU]": 3.675e-01, "rs[AU]": 3.308e+00 }
   r[AU]           ne_full[AU]     n_ion[AU]       ne_ext[AU]      ne_PA[AU]       ne_scr[AU]      
   1.000000e-04    4.981058e+05    4.981031e+05    1.272579e-23    4.981058e+05    2.736886e+00
   1.006378e-04    4.933830e+05    4.933802e+05    1.272579e-23    4.933830e+05    2.786289e+00
   1.012797e-04    4.887049e+05    4.887022e+05    1.272579e-23    4.887049e+05    2.738947e+00
   1.019256e-04    4.840711e+05    4.840685e+05    1.272579e-23    4.840711e+05    2.667641e+00
   1.025757e-04    4.794815e+05    4.794787e+05    1.272579e-23    4.794815e+05    2.809284e+00
   1.032300e-04    4.749350e+05    4.749325e+05    1.272579e-23    4.749350e+05    2.535546e+00
   1.038884e-04    4.704320e+05    4.704293e+05    1.272579e-23    4.704320e+05    2.695379e+00
   1.045510e-04    4.659716e+05    4.659689e+05    1.272579e-23    4.659716e+05    2.638656e+00
   1.052178e-04    4.615533e+05    4.615508e+05    1.272579e-23    4.615533e+05    2.434225e+00
   1.058889e-04    4.571774e+05    4.571746e+05    1.272579e-23    4.571774e+05    2.801580e+00
   1.065643e-04    4.528423e+05    4.528399e+05    1.272579e-23    4.528423e+05    2.416469e+00
   1.072439e-04    4.485489e+05    4.485463e+05    1.272579e-23    4.485489e+05    2.606414e+00
   1.079279e-04    4.442961e+05    4.442934e+05    1.272579e-23    4.442961e+05    2.623107e+00
   1.086163e-04    4.400834e+05    4.400809e+05    1.272579e-23    4.400834e+05    2.473132e+00
   1.093091e-04    4.359110e+05    4.359083e+05    1.272579e-23    4.359110e+05    2.690980e+00
   1.100063e-04    4.317778e+05    4.317753e+05    1.272579e-23    4.317778e+05    2.541372e+00
   1.107079e-04    4.276841e+05    4.276815e+05    1.272579e-23    4.276841e+05    2.588003e+00
   1.114140e-04    4.236291e+05    4.236265e+05    1.272579e-23    4.236291e+05    2.599248e+00
   1.121246e-04    4.196125e+05    4.196099e+05    1.272579e-23    4.196125e+05    2.547462e+00
   1.128397e-04    4.156341e+05    4.156315e+05    1.272579e-23    4.156341e+05    2.571475e+00
   1.135594e-04    4.116933e+05    4.116908e+05    1.272579e-23    4.116933e+05    2.545704e+00
   1.142837e-04    4.077900e+05    4.077874e+05    1.272579e-23    4.077900e+05    2.560038e+00
   1.150126e-04    4.039236e+05    4.039211e+05    1.272579e-23    4.039236e+05    2.470400e+00
   1.157462e-04    4.000940e+05    4.000914e+05    1.272579e-23    4.000940e+05    2.574477e+00
   1.164844e-04    3.963005e+05    3.962981e+05    1.272579e-23    3.963005e+05    2.451501e+00
   1.172273e-04    3.925432e+05    3.925407e+05    1.272579e-23    3.925432e+05    2.446281e+00
   1.179750e-04    3.888215e+05    3.888190e+05    1.272579e-23    3.888215e+05    2.523235e+00
   1.187275e-04    3.851348e+05    3.851325e+05    1.272579e-23    3.851348e+05    2.250560e+00
   1.194847e-04    3.814836e+05    3.814811e+05    1.272579e-23    3.814836e+05    2.498630e+00
   1.202468e-04    3.778666e+05    3.778642e+05    1.272579e-23    3.778666e+05    2.331534e+00
   1.210138e-04    3.742840e+05    3.742817e+05    1.272579e-23    3.742840e+05    2.307131e+00
   1.217856e-04    3.707356e+05    3.707331e+05    1.272579e-23    3.707356e+05    2.489499e+00
   1.225623e-04    3.672204e+05    3.672182e+05    1.272579e-23    3.672204e+05    2.237681e+00
   1.233440e-04    3.637390e+05    3.637366e+05    1.272579e-23    3.637390e+05    2.437357e+00
   1.241307e-04    3.602904e+05    3.602880e+05    1.272579e-23    3.602904e+05    2.376151e+00
   1.249225e-04    3.568745e+05    3.568721e+05    1.272579e-23    3.568745e+05    2.341024e+00
   1.257192e-04    3.534911e+05    3.534887e+05    1.272579e-23    3.534911e+05    2.444106e+00
   1.265211e-04    3.501396e+05    3.501373e+05    1.272579e-23    3.501396e+05    2.338105e+00
   1.273280e-04    3.468201e+05    3.468177e+05    1.272579e-23    3.468201e+05    2.382392e+00
   1.281401e-04    3.435319e+05    3.435296e+05    1.272579e-23    3.435319e+05    2.356771e+00
   1.289574e-04    3.402750e+05    3.402726e+05    1.272579e-23    3.402750e+05    2.362456e+00
   1.297799e-04    3.370489e+05    3.370466e+05    1.272579e-23    3.370489e+05    2.319014e+00
   1.306077e-04    3.338534e+05    3.338511e+05    1.272579e-23    3.338534e+05    2.340344e+00
   1.314407e-04    3.306883e+05    3.306859e+05    1.272579e-23    3.306883e+05    2.322485e+00
   1.322790e-04    3.275530e+05    3.275508e+05    1.272579e-23    3.275530e+05    2.251236e+00
   1.331227e-04    3.244477e+05    3.244454e+05    1.272579e-23    3.244477e+05    2.371686e+00
   1.339718e-04    3.213716e+05    3.213694e+05    1.272579e-23    3.213716e+05    2.186900e+00
   1.348262e-04    3.183249e+05    3.183226e+05    1.272579e-23    3.183249e+05    2.257281e+00
   1.356862e-04    3.153070e+05    3.153047e+05    1.272579e-23    3.153070e+05    2.257797e+00
   1.365516e-04    3.123175e+05    3.123154e+05    1.272579e-23    3.123175e+05    2.072243e+00
   1.374225e-04    3.093568e+05    3.093545e+05    1.272579e-23    3.093568e+05    2.328245e+00
   1.382990e-04    3.064237e+05    3.064216e+05    1.272579e-23    3.064237e+05    2.109203e+00
   1.391811e-04    3.035188e+05    3.035166e+05    1.272579e-23    3.035188e+05    2.193572e+00
   1.400688e-04    3.006413e+05    3.006391e+05    1.272579e-23    3.006413e+05    2.240278e+00
   1.409621e-04    2.977910e+05    2.977889e+05    1.272579e-23    2.977910e+05    2.106032e+00
   1.418612e-04    2.949680e+05    2.949657e+05    1.272579e-23    2.949680e+05    2.253073e+00
   1.427660e-04    2.921715e+05    2.921693e+05    1.272579e-23    2.921715e+05    2.172897e+00
   1.436766e-04    2.894016e+05    2.893994e+05    1.272579e-23    2.894016e+05    2.185935e+00
   1.445930e-04    2.866580e+05    2.866558e+05    1.272579e-23    2.866580e+05    2.202679e+00
   1.455152e-04    2.839403e+05    2.839382e+05    1.272579e-23    2.839403e+05    2.164999e+00
   1.464433e-04    2.812485e+05    2.812463e+05    1.272579e-23    2.812485e+05    2.175748e+00
   1.473773e-04    2.785822e+05    2.785800e+05    1.272579e-23    2.785822e+05    2.155276e+00
   1.483173e-04    2.759412e+05    2.759390e+05    1.272579e-23    2.759412e+05    2.170722e+00
   1.492633e-04    2.733251e+05    2.733230e+05    1.272579e-23    2.733251e+05    2.094082e+00
   1.502153e-04    2.707340e+05    2.707318e+05    1.272579e-23    2.707340e+05    2.164233e+00
   1.511734e-04    2.681673e+05    2.681652e+05    1.272579e-23    2.681673e+05    2.096481e+00
   1.521375e-04    2.656250e+05    2.656230e+05    1.272579e-23    2.656250e+05    2.067834e+00
   1.531079e-04    2.631069e+05    2.631048e+05    1.272579e-23    2.631069e+05    2.147546e+00
   1.540844e-04    2.606125e+05    2.606105e+05    1.272579e-23    2.606125e+05    1.947543e+00
   1.550672e-04    2.581420e+05    2.581399e+05    1.272579e-23    2.581420e+05    2.093269e+00
   1.560562e-04    2.556947e+05    2.556927e+05    1.272579e-23    2.556947e+05    2.016687e+00
   1.570515e-04    2.532707e+05    2.532687e+05    1.272579e-23    2.532707e+05    1.968222e+00
   1.580532e-04    2.508698e+05    2.508677e+05    1.272579e-23    2.508698e+05    2.123345e+00
   1.590613e-04    2.484914e+05    2.484894e+05    1.272579e-23    2.484914e+05    1.953422e+00
   1.600758e-04    2.461358e+05    2.461338e+05    1.272579e-23    2.461358e+05    2.055740e+00
   1.610968e-04    2.438024e+05    2.438004e+05    1.272579e-23    2.438024e+05    2.036804e+00
   1.621242e-04    2.414912e+05    2.414892e+05    1.272579e-23    2.414912e+05    1.994090e+00
   1.631583e-04    2.392019e+05    2.391999e+05    1.272579e-23    2.392019e+05    2.065464e+00
   1.641989e-04    2.369343e+05    2.369323e+05    1.272579e-23    2.369343e+05    2.001544e+00
   1.652462e-04    2.346882e+05    2.346862e+05    1.272579e-23    2.346882e+05    2.020440e+00
   1.663001e-04    2.324634e+05    2.324614e+05    1.272579e-23    2.324634e+05    2.003665e+00
   1.673608e-04    2.302597e+05    2.302576e+05    1.272579e-23    2.302597e+05    2.010287e+00
   1.684282e-04    2.280768e+05    2.280748e+05    1.272579e-23    2.280768e+05    1.975288e+00
   1.695025e-04    2.259147e+05    2.259127e+05    1.272579e-23    2.259147e+05    1.984187e+00
   1.705836e-04    2.237731e+05    2.237711e+05    1.272579e-23    2.237731e+05    1.981009e+00
   1.716716e-04    2.216517e+05    2.216498e+05    1.272579e-23    2.216517e+05    1.913685e+00
   1.727665e-04    2.195506e+05    2.195486e+05    1.272579e-23    2.195506e+05    2.009094e+00
   1.738684e-04    2.174692e+05    2.174674e+05    1.272579e-23    2.174692e+05    1.886638e+00
   1.749774e-04    2.154077e+05    2.154058e+05    1.272579e-23    2.154077e+05    1.909742e+00
   1.760934e-04    2.133658e+05    2.133638e+05    1.272579e-23    2.133658e+05    1.937811e+00
   1.772165e-04    2.113430e+05    2.113412e+05    1.272579e-23    2.113430e+05    1.773800e+00
   1.783468e-04    2.093397e+05    2.093378e+05    1.272579e-23    2.093397e+05    1.956635e+00
   1.794843e-04    2.073552e+05    2.073533e+05    1.272579e-23    2.073552e+05    1.842512e+00
   1.806291e-04    2.053896e+05    2.053877e+05    1.272579e-23    2.053896e+05    1.869190e+00
   1.817811e-04    2.034426e+05    2.034407e+05    1.272579e-23    2.034426e+05    1.920086e+00
   1.829405e-04    2.015140e+05    2.015122e+05    1.272579e-23    2.015140e+05    1.818756e+00
   1.841073e-04    1.996038e+05    1.996019e+05    1.272579e-23    1.996038e+05    1.906325e+00
   1.852816e-04    1.977117e+05    1.977098e+05    1.272579e-23    1.977117e+05    1.866737e+00
   1.864633e-04    1.958375e+05    1.958356e+05    1.272579e-23    1.958375e+05    1.864492e+00
   1.876526e-04    1.939811e+05    1.939792e+05    1.272579e-23    1.939811e+05    1.876093e+00
   1.888495e-04    1.921422e+05    1.921404e+05    1.272579e-23    1.921422e+05    1.854305e+00
   1.900540e-04    1.903209e+05    1.903190e+05    1.272579e-23    1.903209e+05    1.853843e+00
   1.912661e-04    1.885167e+05    1.885149e+05    1.272579e-23    1.885167e+05    1.837018e+00
   1.924860e-04    1.867297e+05    1.867279e+05    1.272579e-23    1.867297e+05    1.853989e+00
   1.937137e-04    1.849596e+05    1.849578e+05    1.272579e-23    1.849596e+05    1.786694e+00
   1.949492e-04    1.832064e+05    1.832045e+05    1.272579e-23    1.832064e+05    1.836333e+00
   1.961926e-04    1.814697e+05    1.814679e+05    1.272579e-23    1.814697e+05    1.799957e+00
   1.974440e-04    1.797495e+05    1.797477e+05    1.272579e-23    1.797495e+05    1.760527e+00
   1.987033e-04    1.780457e+05    1.780438e+05    1.272579e-23    1.780457e+05    1.837825e+00
   1.999706e-04    1.763578e+05    1.763561e+05    1.272579e-23    1.763578e+05    1.694492e+00
   2.012460e-04    1.746862e+05    1.746844e+05    1.272579e-23    1.746862e+05    1.773036e+00
   2.025296e-04    1.730303e+05    1.730285e+05    1.272579e-23    1.730303e+05    1.746300e+00
   2.038213e-04    1.713900e+05    1.713883e+05    1.272579e-23    1.713900e+05    1.697198e+00
   2.051213e-04    1.697655e+05    1.697637e+05    1.272579e-23    1.697655e+05    1.815963e+00
   2.064296e-04    1.681562e+05    1.681545e+05    1.272579e-23    1.681562e+05    1.705891e+00
   2.077462e-04    1.665623e+05    1.665606e+05    1.272579e-23    1.665623e+05    1.752332e+00
   2.090712e-04    1.649835e+05    1.649817e+05    1.272579e-23    1.649835e+05    1.751673e+00
   2.104047e-04    1.634196e+05    1.634178e+05    1.272579e-23    1.634196e+05    1.714378e+00
   2.117467e-04    1.618705e+05    1.618688e+05    1.272579e-23    1.618705e+05    1.754227e+00
   2.130972e-04    1.603362e+05    1.603344e+05    1.272579e-23    1.603362e+05    1.721928e+00
   2.144563e-04    1.588163e+05    1.588146e+05    1.272579e-23    1.588163e+05    1.727555e+00
   2.158242e-04    1.573109e+05    1.573092e+05    1.272579e-23    1.573109e+05    1.712812e+00
   2.172007e-04    1.558198e+05    1.558181e+05    1.272579e-23    1.558198e+05    1.724262e+00
   2.185860e-04    1.543428e+05    1.543411e+05    1.272579e-23    1.543428e+05    1.692161e+00
   2.199802e-04    1.528798e+05    1.528781e+05    1.272579e-23    1.528798e+05    1.693989e+00
   2.213832e-04    1.514307e+05    1.514290e+05    1.272579e-23    1.514307e+05    1.699445e+00
   2.227952e-04    1.499952e+05    1.499936e+05    1.272579e-23    1.499952e+05    1.635797e+00
   2.242162e-04    1.485736e+05    1.485718e+05    1.272579e-23    1.485736e+05    1.705380e+00
   2.256463e-04    1.471652e+05    1.471636e+05    1.272579e-23    1.471652e+05    1.630399e+00
   2.270855e-04    1.457702e+05    1.457686e+05    1.272579e-23    1.457702e+05    1.627940e+00
   2.285338e-04    1.443886e+05    1.443869e+05    1.272579e-23    1.443886e+05    1.668310e+00
   2.299914e-04    1.430198e+05    1.430183e+05    1.272579e-23    1.430198e+05    1.541545e+00
   2.314583e-04    1.416643e+05    1.416627e+05    1.272579e-23    1.416643e+05    1.662728e+00
   2.329346e-04    1.403215e+05    1.403199e+05    1.272579e-23    1.403215e+05    1.608112e+00
   2.344202e-04    1.389914e+05    1.389898e+05    1.272579e-23    1.389914e+05    1.607260e+00
   2.359154e-04    1.376740e+05    1.376724e+05    1.272579e-23    1.376740e+05    1.650187e+00
   2.374201e-04    1.363690e+05    1.363674e+05    1.272579e-23    1.363690e+05    1.586756e+00
   2.389343e-04    1.350765e+05    1.350749e+05    1.272579e-23    1.350765e+05    1.627321e+00
   2.404583e-04    1.337961e+05    1.337945e+05    1.272579e-23    1.337961e+05    1.608875e+00
   2.419919e-04    1.325280e+05    1.325263e+05    1.272579e-23    1.325280e+05    1.602718e+00
   2.435354e-04    1.312718e+05    1.312702e+05    1.272579e-23    1.312718e+05    1.605085e+00
   2.450887e-04    1.300275e+05    1.300259e+05    1.272579e-23    1.300275e+05    1.595688e+00
   2.466518e-04    1.287951e+05    1.287935e+05    1.272579e-23    1.287951e+05    1.590179e+00
   2.482250e-04    1.275743e+05    1.275727e+05    1.272579e-23    1.275743e+05    1.573890e+00
   2.498082e-04    1.263651e+05    1.263635e+05    1.272579e-23    1.263651e+05    1.593559e+00
   2.514015e-04    1.251673e+05    1.251658e+05    1.272579e-23    1.251673e+05    1.539317e+00
   2.530049e-04    1.239810e+05    1.239794e+05    1.272579e-23    1.239810e+05    1.568907e+00
   2.546186e-04    1.228058e+05    1.228043e+05    1.272579e-23    1.228058e+05    1.551449e+00
   2.562426e-04    1.216418e+05    1.216403e+05    1.272579e-23    1.216418e+05    1.507779e+00
   2.578769e-04    1.204889e+05    1.204873e+05    1.272579e-23    1.204889e+05    1.580290e+00
   2.595217e-04    1.193468e+05    1.193453e+05    1.272579e-23    1.193468e+05    1.474272e+00
   2.611769e-04    1.182156e+05    1.182141e+05    1.272579e-23    1.182156e+05    1.521591e+00
   2.628427e-04    1.170951e+05    1.170936e+05    1.272579e-23    1.170951e+05    1.520629e+00
   2.645191e-04    1.159852e+05    1.159838e+05    1.272579e-23    1.159852e+05    1.473711e+00
   2.662063e-04    1.148860e+05    1.148844e+05    1.272579e-23    1.148860e+05    1.545247e+00
   2.679041e-04    1.137970e+05    1.137955e+05    1.272579e-23    1.137970e+05    1.488829e+00
   2.696128e-04    1.127185e+05    1.127170e+05    1.272579e-23    1.127185e+05    1.505529e+00
   2.713324e-04    1.116501e+05    1.116486e+05    1.272579e-23    1.116501e+05    1.509991e+00
   2.730630e-04    1.105918e+05    1.105904e+05    1.272579e-23    1.105918e+05    1.483239e+00
   2.748046e-04    1.095437e+05    1.095422e+05    1.272579e-23    1.095437e+05    1.501379e+00
   2.765574e-04    1.085054e+05    1.085039e+05    1.272579e-23    1.085054e+05    1.485693e+00
   2.783212e-04    1.074770e+05    1.074755e+05    1.272579e-23    1.074770e+05    1.486553e+00
   2.800964e-04    1.064583e+05    1.064568e+05    1.272579e-23    1.064583e+05    1.470071e+00
   2.818829e-04    1.054493e+05    1.054478e+05    1.272579e-23    1.054493e+05    1.483601e+00
   2.836807e-04    1.044498e+05    1.044484e+05    1.272579e-23    1.044498e+05    1.457021e+00
   2.854901e-04    1.034598e+05    1.034584e+05    1.272579e-23    1.034598e+05    1.453498e+00
   2.873109e-04    1.024793e+05    1.024778e+05    1.272579e-23    1.024793e+05    1.465009e+00
   2.891434e-04    1.015079e+05    1.015065e+05    1.272579e-23    1.015079e+05    1.404861e+00
   2.909876e-04    1.005459e+05    1.005444e+05    1.272579e-23    1.005459e+05    1.457512e+00
   2.928435e-04    9.959289e+04    9.959148e+04    1.272579e-23    9.959289e+04    1.412541e+00
   2.947113e-04    9.864895e+04    9.864755e+04    1.272579e-23    9.864895e+04    1.396032e+00
   2.965910e-04    9.771401e+04    9.771257e+04    1.272579e-23    9.771401e+04    1.441174e+00
   2.984827e-04    9.678782e+04    9.678646e+04    1.272579e-23    9.678782e+04    1.363032e+00
   3.003864e-04    9.587055e+04    9.586912e+04    1.272579e-23    9.587055e+04    1.425626e+00
   3.023023e-04    9.496188e+04    9.496048e+04    1.272579e-23    9.496188e+04    1.401891e+00
   3.042304e-04    9.406185e+04    9.406045e+04    1.272579e-23    9.406185e+04    1.391160e+00
   3.061708e-04    9.317038e+04    9.316896e+04    1.272579e-23    9.317038e+04    1.421267e+00
   3.081235e-04    9.228730e+04    9.228592e+04    1.272579e-23    9.228730e+04    1.383776e+00
   3.100888e-04    9.141265e+04    9.141125e+04    1.272579e-23    9.141265e+04    1.399220e+00
   3.120665e-04    9.054626e+04    9.054487e+04    1.272579e-23    9.054626e+04    1.389788e+00
   3.140569e-04    8.968809e+04    8.968670e+04    1.272579e-23    8.968809e+04    1.385418e+00
   3.160600e-04    8.883805e+04    8.883667e+04    1.272579e-23    8.883805e+04    1.378773e+00
   3.180758e-04    8.799607e+04    8.799469e+04    1.272579e-23    8.799607e+04    1.377341e+00
   3.201045e-04    8.716207e+04    8.716070e+04    1.272579e-23    8.716207e+04    1.371265e+00
   3.221462e-04    8.633597e+04    8.633462e+04    1.272579e-23    8.633597e+04    1.353889e+00
   3.242008e-04    8.551774e+04    8.551636e+04    1.272579e-23    8.551774e+04    1.376288e+00
   3.262686e-04    8.470719e+04    8.470586e+04    1.272579e-23    8.470719e+04    1.331231e+00
   3.283496e-04    8.390439e+04    8.390305e+04    1.272579e-23    8.390439e+04    1.347307e+00
   3.304438e-04    8.310918e+04    8.310784e+04    1.272579e-23    8.310918e+04    1.342169e+00
   3.325514e-04    8.232147e+04    8.232017e+04    1.272579e-23    8.232147e+04    1.297460e+00
   3.346724e-04    8.154133e+04    8.153997e+04    1.272579e-23    8.154133e+04    1.357438e+00
   3.368070e-04    8.076846e+04    8.076717e+04    1.272579e-23    8.076846e+04    1.289449e+00
   3.389552e-04    8.000300e+04    8.000169e+04    1.272579e-23    8.000300e+04    1.314936e+00
   3.411170e-04    7.924479e+04    7.924347e+04    1.272579e-23    7.924479e+04    1.322980e+00
   3.432927e-04    7.849372e+04    7.849243e+04    1.272579e-23    7.849372e+04    1.285144e+00
   3.454822e-04    7.774984e+04    7.774851e+04    1.272579e-23    7.774984e+04    1.325573e+00
   3.476857e-04    7.701295e+04    7.701165e+04    1.272579e-23    7.701295e+04    1.298168e+00
   3.499033e-04    7.628307e+04    7.628177e+04    1.272579e-23    7.628307e+04    1.301295e+00
   3.521350e-04    7.556011e+04    7.555881e+04    1.272579e-23    7.556011e+04    1.304194e+00
   3.543809e-04    7.484399e+04    7.484270e+04    1.272579e-23    7.484399e+04    1.289471e+00
   3.566412e-04    7.413467e+04    7.413338e+04    1.272579e-23    7.413467e+04    1.293012e+00
   3.589159e-04    7.343207e+04    7.343078e+04    1.272579e-23    7.343207e+04    1.284756e+00
   3.612051e-04    7.273613e+04    7.273485e+04    1.272579e-23    7.273613e+04    1.285580e+00
