Model replicates Starrett & Saumon 2014 'A simple method for determining the ionic structure of warm dense matter'
 # {"name":"CS2014_Xe", "Z":54, "Zstar":nan, "A":131.293,  "μ_core[AU]": -1.4919387679e-01, "μ_empty[AU]": -1.4917999041e-01, "Te[AU]": 3.675e-02, "Ti[AU]": 3.675e-02, "rs[AU]": 2.345e+01 }
   r[AU]           ne_full[AU]     n_ion[AU]       ne_ext[AU]      ne_PA[AU]       ne_scr[AU]      
   1.000000e-04    3.786906e+07    3.786906e+07    8.857032e-06    3.786906e+07    5.792812e+00
   1.007015e-04    3.747378e+07    3.747376e+07    8.857032e-06    3.747378e+07    1.360096e+01
   1.014080e-04    3.708260e+07    3.708260e+07    8.857032e-06    3.708260e+07    5.823358e+00
   1.021194e-04    3.669551e+07    3.669551e+07    8.857032e-06    3.669551e+07   -2.678457e+00
   1.028358e-04    3.631247e+07    3.631246e+07    8.857032e-06    3.631247e+07    7.957513e+00
   1.035572e-04    3.593342e+07    3.593341e+07    8.857032e-06    3.593342e+07    1.141817e+01
   1.042837e-04    3.555832e+07    3.555832e+07    8.857032e-06    3.555832e+07    7.724407e-02
   1.050153e-04    3.518714e+07    3.518714e+07    8.857032e-06    3.518714e+07   -7.897440e-01
   1.057520e-04    3.481984e+07    3.481983e+07    8.857032e-06    3.481984e+07    1.105251e+01
   1.064939e-04    3.445636e+07    3.445635e+07    8.857032e-06    3.445636e+07    9.104948e+00
   1.072410e-04    3.409667e+07    3.409667e+07    8.857032e-06    3.409667e+07   -1.346739e+00
   1.079934e-04    3.374074e+07    3.374074e+07    8.857032e-06    3.374074e+07    1.802598e+00
   1.087510e-04    3.338853e+07    3.338852e+07    8.857032e-06    3.338853e+07    1.019174e+01
   1.095139e-04    3.303998e+07    3.303998e+07    8.857032e-06    3.303998e+07    4.715543e+00
   1.102822e-04    3.269507e+07    3.269507e+07    8.857032e-06    3.269507e+07   -5.639999e+00
   1.110558e-04    3.235377e+07    3.235377e+07    8.857032e-06    3.235377e+07    6.441861e+00
   1.118349e-04    3.201603e+07    3.201602e+07    8.857032e-06    3.201603e+07    1.003889e+01
   1.126195e-04    3.168180e+07    3.168180e+07    8.857032e-06    3.168180e+07    5.627113e-01
   1.134096e-04    3.135106e+07    3.135106e+07    8.857032e-06    3.135106e+07   -5.251037e+00
   1.142052e-04    3.102379e+07    3.102378e+07    8.857032e-06    3.102379e+07    7.349751e+00
   1.150064e-04    3.069992e+07    3.069991e+07    8.857032e-06    3.069992e+07    6.942857e+00
   1.158132e-04    3.037942e+07    3.037942e+07    8.857032e-06    3.037942e+07   -6.156668e+00
   1.166256e-04    3.006228e+07    3.006228e+07    8.857032e-06    3.006228e+07    9.324503e-01
   1.174438e-04    2.974845e+07    2.974844e+07    8.857032e-06    2.974845e+07    9.081438e+00
   1.182677e-04    2.943789e+07    2.943788e+07    8.857032e-06    2.943789e+07    4.247376e+00
   1.190974e-04    2.913056e+07    2.913056e+07    8.857032e-06    2.913056e+07   -5.222683e+00
   1.199329e-04    2.882645e+07    2.882645e+07    8.857032e-06    2.882645e+07    3.269249e+00
   1.207743e-04    2.852552e+07    2.852551e+07    8.857032e-06    2.852552e+07    7.222542e+00
   1.216216e-04    2.822771e+07    2.822771e+07    8.857032e-06    2.822771e+07   -7.043798e-01
   1.224748e-04    2.793301e+07    2.793302e+07    8.857032e-06    2.793301e+07   -2.745365e+00
   1.233340e-04    2.764140e+07    2.764140e+07    8.857032e-06    2.764140e+07    5.932597e+00
   1.241992e-04    2.735283e+07    2.735282e+07    8.857032e-06    2.735283e+07    6.394318e+00
   1.250705e-04    2.706726e+07    2.706726e+07    8.857032e-06    2.706726e+07   -2.851818e+00
   1.259479e-04    2.678467e+07    2.678467e+07    8.857032e-06    2.678467e+07   -1.741303e+00
   1.268315e-04    2.650504e+07    2.650504e+07    8.857032e-06    2.650504e+07    5.950948e+00
   1.277213e-04    2.622832e+07    2.622832e+07    8.857032e-06    2.622832e+07    2.558084e+00
   1.286173e-04    2.595448e+07    2.595449e+07    8.857032e-06    2.595448e+07   -5.253131e+00
   1.295196e-04    2.568352e+07    2.568352e+07    8.857032e-06    2.568352e+07    1.788106e+00
   1.304282e-04    2.541538e+07    2.541537e+07    8.857032e-06    2.541538e+07    6.343867e+00
   1.313432e-04    2.515002e+07    2.515002e+07    8.857032e-06    2.515002e+07   -1.869080e-01
   1.322646e-04    2.488744e+07    2.488744e+07    8.857032e-06    2.488744e+07   -7.377407e+00
   1.331925e-04    2.462761e+07    2.462760e+07    8.857032e-06    2.462761e+07    3.503760e+00
   1.341269e-04    2.437048e+07    2.437048e+07    8.857032e-06    2.437048e+07    3.985452e+00
   1.350679e-04    2.411603e+07    2.411603e+07    8.857032e-06    2.411603e+07   -5.586260e+00
   1.360154e-04    2.386424e+07    2.386424e+07    8.857032e-06    2.386424e+07   -2.515979e+00
   1.369696e-04    2.361508e+07    2.361508e+07    8.857032e-06    2.361508e+07    4.715964e+00
   1.379305e-04    2.336852e+07    2.336852e+07    8.857032e-06    2.336852e+07    2.473216e+00
   1.388981e-04    2.312452e+07    2.312453e+07    8.857032e-06    2.312452e+07   -7.247655e+00
   1.398726e-04    2.288308e+07    2.288308e+07    8.857032e-06    2.288308e+07    1.582336e-01
   1.408538e-04    2.264416e+07    2.264416e+07    8.857032e-06    2.264416e+07    3.974223e+00
   1.418420e-04    2.240773e+07    2.240773e+07    8.857032e-06    2.240773e+07   -1.610666e+00
   1.428370e-04    2.217376e+07    2.217376e+07    8.857032e-06    2.217376e+07   -4.225109e+00
   1.438391e-04    2.194224e+07    2.194224e+07    8.857032e-06    2.194224e+07    2.117060e+00
   1.448482e-04    2.171314e+07    2.171314e+07    8.857032e-06    2.171314e+07    3.268009e+00
   1.458643e-04    2.148642e+07    2.148642e+07    8.857032e-06    2.148642e+07   -4.316173e+00
   1.468876e-04    2.126207e+07    2.126207e+07    8.857032e-06    2.126207e+07   -3.860230e+00
   1.479181e-04    2.104006e+07    2.104006e+07    8.857032e-06    2.104006e+07    2.849897e+00
   1.489558e-04    2.082037e+07    2.082037e+07    8.857032e-06    2.082037e+07    7.066763e-01
   1.500008e-04    2.060296e+07    2.060297e+07    8.857032e-06    2.060296e+07   -5.155118e+00
   1.510531e-04    2.038784e+07    2.038784e+07    8.857032e-06    2.038784e+07   -1.168991e+00
   1.521128e-04    2.017495e+07    2.017495e+07    8.857032e-06    2.017495e+07    2.873262e+00
   1.531799e-04    1.996428e+07    1.996429e+07    8.857032e-06    1.996428e+07   -1.446998e+00
   1.542545e-04    1.975581e+07    1.975582e+07    8.857032e-06    1.975581e+07   -8.277629e+00
   1.553366e-04    1.954953e+07    1.954953e+07    8.857032e-06    1.954953e+07    8.378688e-01
   1.564264e-04    1.934539e+07    1.934539e+07    8.857032e-06    1.934539e+07    1.664619e+00
   1.575238e-04    1.914337e+07    1.914338e+07    8.857032e-06    1.914337e+07   -5.474061e+00
   1.586289e-04    1.894347e+07    1.894348e+07    8.857032e-06    1.894347e+07   -4.980325e+00
   1.597417e-04    1.874567e+07    1.874567e+07    8.857032e-06    1.874567e+07    1.562187e+00
   1.608623e-04    1.854992e+07    1.854992e+07    8.857032e-06    1.854992e+07    1.913479e-01
   1.619909e-04    1.835620e+07    1.835621e+07    8.857032e-06    1.835620e+07   -8.844003e+00
   1.631273e-04    1.816452e+07    1.816452e+07    8.857032e-06    1.816452e+07   -1.788861e+00
   1.642717e-04    1.797484e+07    1.797484e+07    8.857032e-06    1.797484e+07    1.566558e+00
   1.654241e-04    1.778713e+07    1.778713e+07    8.857032e-06    1.778713e+07   -2.559820e+00
   1.665846e-04    1.760138e+07    1.760138e+07    8.857032e-06    1.760138e+07   -5.452362e+00
   1.677533e-04    1.741757e+07    1.741757e+07    8.857032e-06    1.741757e+07   -4.613874e-01
   1.689301e-04    1.723568e+07    1.723568e+07    8.857032e-06    1.723568e+07    7.631667e-01
   1.701152e-04    1.705568e+07    1.705569e+07    8.857032e-06    1.705568e+07   -5.193150e+00
   1.713086e-04    1.687757e+07    1.687757e+07    8.857032e-06    1.687757e+07   -4.883472e+00
   1.725104e-04    1.670132e+07    1.670132e+07    8.857032e-06    1.670132e+07    6.611525e-01
   1.737206e-04    1.652690e+07    1.652690e+07    8.857032e-06    1.652690e+07   -8.225604e-01
   1.749394e-04    1.635430e+07    1.635431e+07    8.857032e-06    1.635430e+07   -5.414537e+00
   1.761666e-04    1.618351e+07    1.618351e+07    8.857032e-06    1.618351e+07   -2.995197e+00
   1.774025e-04    1.601450e+07    1.601450e+07    8.857032e-06    1.601450e+07    4.426979e-01
   1.786470e-04    1.584725e+07    1.584725e+07    8.857032e-06    1.584725e+07   -2.848338e+00
   1.799003e-04    1.568174e+07    1.568175e+07    8.857032e-06    1.568174e+07   -7.535330e+00
   1.811624e-04    1.551797e+07    1.551797e+07    8.857032e-06    1.551797e+07   -8.871162e-01
   1.824333e-04    1.535590e+07    1.535590e+07    8.857032e-06    1.535590e+07   -8.844931e-02
   1.837131e-04    1.519552e+07    1.519552e+07    8.857032e-06    1.519552e+07   -4.970952e+00
   1.850019e-04    1.503682e+07    1.503682e+07    8.857032e-06    1.503682e+07   -5.869942e+00
   1.862998e-04    1.487978e+07    1.487978e+07    8.857032e-06    1.487978e+07   -5.664325e-01
   1.876067e-04    1.472437e+07    1.472437e+07    8.857032e-06    1.472437e+07   -1.547772e+00
   1.889229e-04    1.457057e+07    1.457058e+07    8.857032e-06    1.457057e+07   -8.641175e+00
   1.902482e-04    1.441840e+07    1.441840e+07    8.857032e-06    1.441840e+07   -2.998576e+00
   1.915829e-04    1.426781e+07    1.426781e+07    8.857032e-06    1.426781e+07   -1.551169e-01
   1.929269e-04    1.411879e+07    1.411879e+07    8.857032e-06    1.411879e+07   -3.392492e+00
   1.942804e-04    1.397132e+07    1.397132e+07    8.857032e-06    1.397132e+07   -6.703345e+00
   1.956433e-04    1.382539e+07    1.382540e+07    8.857032e-06    1.382539e+07   -2.079633e+00
   1.970158e-04    1.368099e+07    1.368099e+07    8.857032e-06    1.368099e+07   -1.080778e+00
   1.983980e-04    1.353809e+07    1.353810e+07    8.857032e-06    1.353809e+07   -5.805925e+00
   1.997898e-04    1.339668e+07    1.339669e+07    8.857032e-06    1.339668e+07   -5.040196e+00
   2.011914e-04    1.325676e+07    1.325676e+07    8.857032e-06    1.325676e+07   -8.292132e-01
   2.026028e-04    1.311829e+07    1.311829e+07    8.857032e-06    1.311829e+07   -2.024288e+00
   2.040242e-04    1.298126e+07    1.298127e+07    8.857032e-06    1.298126e+07   -6.047778e+00
   2.054555e-04    1.284567e+07    1.284567e+07    8.857032e-06    1.284567e+07   -3.957795e+00
   2.068968e-04    1.271149e+07    1.271149e+07    8.857032e-06    1.271149e+07   -1.268744e+00
   2.083483e-04    1.257871e+07    1.257871e+07    8.857032e-06    1.257871e+07   -3.940189e+00
   2.098099e-04    1.244731e+07    1.244732e+07    8.857032e-06    1.244731e+07   -6.456504e+00
   2.112818e-04    1.231730e+07    1.231730e+07    8.857032e-06    1.231730e+07   -2.262406e+00
   2.127640e-04    1.218863e+07    1.218863e+07    8.857032e-06    1.218863e+07   -1.412156e+00
   2.142566e-04    1.206131e+07    1.206131e+07    8.857032e-06    1.206131e+07   -5.176393e+00
   2.157597e-04    1.193531e+07    1.193532e+07    8.857032e-06    1.193531e+07   -6.079739e+00
   2.172733e-04    1.181064e+07    1.181064e+07    8.857032e-06    1.181064e+07   -1.962747e+00
   2.187976e-04    1.168726e+07    1.168726e+07    8.857032e-06    1.168726e+07   -2.870098e+00
   2.203325e-04    1.156517e+07    1.156517e+07    8.857032e-06    1.156517e+07   -7.353606e+00
   2.218782e-04    1.144435e+07    1.144436e+07    8.857032e-06    1.144435e+07   -4.040493e+00
   2.234348e-04    1.132480e+07    1.132480e+07    8.857032e-06    1.132480e+07   -1.504601e+00
   2.250023e-04    1.120649e+07    1.120650e+07    8.857032e-06    1.120649e+07   -4.110873e+00
   2.265807e-04    1.108942e+07    1.108942e+07    8.857032e-06    1.108942e+07   -8.053263e+00
   2.281703e-04    1.097357e+07    1.097357e+07    8.857032e-06    1.097357e+07   -3.023635e+00
   2.297710e-04    1.085893e+07    1.085893e+07    8.857032e-06    1.085893e+07   -2.406270e+00
   2.313829e-04    1.074548e+07    1.074549e+07    8.857032e-06    1.074548e+07   -6.337980e+00
   2.330061e-04    1.063322e+07    1.063323e+07    8.857032e-06    1.063322e+07   -5.410687e+00
   2.346408e-04    1.052214e+07    1.052214e+07    8.857032e-06    1.052214e+07   -2.235161e+00
   2.362869e-04    1.041221e+07    1.041221e+07    8.857032e-06    1.041221e+07   -2.960704e+00
   2.379445e-04    1.030342e+07    1.030343e+07    8.857032e-06    1.030342e+07   -7.045883e+00
   2.396138e-04    1.019578e+07    1.019578e+07    8.857032e-06    1.019578e+07   -4.352298e+00
   2.412947e-04    1.008926e+07    1.008926e+07    8.857032e-06    1.008926e+07   -2.441147e+00
   2.429875e-04    9.983843e+06    9.983848e+06    8.857032e-06    9.983843e+06   -4.788819e+00
   2.446921e-04    9.879531e+06    9.879537e+06    8.857032e-06    9.879531e+06   -6.078222e+00
   2.464087e-04    9.776311e+06    9.776314e+06    8.857032e-06    9.776311e+06   -3.266872e+00
   2.481374e-04    9.674167e+06    9.674169e+06    8.857032e-06    9.674167e+06   -2.639146e+00
   2.498782e-04    9.573085e+06    9.573091e+06    8.857032e-06    9.573085e+06   -5.952582e+00
   2.516312e-04    9.473061e+06    9.473067e+06    8.857032e-06    9.473061e+06   -5.865064e+00
   2.533964e-04    9.374084e+06    9.374087e+06    8.857032e-06    9.374084e+06   -2.855822e+00
   2.551741e-04    9.276136e+06    9.276140e+06    8.857032e-06    9.276136e+06   -3.837739e+00
   2.569642e-04    9.179209e+06    9.179215e+06    8.857032e-06    9.179209e+06   -6.400475e+00
   2.587669e-04    9.083298e+06    9.083303e+06    8.857032e-06    9.083298e+06   -4.497889e+00
   2.605823e-04    8.988388e+06    8.988391e+06    8.857032e-06    8.988388e+06   -2.753121e+00
   2.624104e-04    8.894465e+06    8.894470e+06    8.857032e-06    8.894465e+06   -4.817455e+00
   2.642513e-04    8.801522e+06    8.801529e+06    8.857032e-06    8.801522e+06   -7.454086e+00
   2.661051e-04    8.709555e+06    8.709558e+06    8.857032e-06    8.709555e+06   -3.534865e+00
   2.679719e-04    8.618544e+06    8.618548e+06    8.857032e-06    8.618544e+06   -3.347402e+00
   2.698518e-04    8.528480e+06    8.528487e+06    8.857032e-06    8.528480e+06   -6.440963e+00
   2.717449e-04    8.439360e+06    8.439366e+06    8.857032e-06    8.439360e+06   -5.852010e+00
   2.736513e-04    8.351172e+06    8.351176e+06    8.857032e-06    8.351172e+06   -3.169227e+00
   2.755711e-04    8.263902e+06    8.263906e+06    8.857032e-06    8.263902e+06   -4.047344e+00
   2.775043e-04    8.177538e+06    8.177547e+06    8.857032e-06    8.177538e+06   -8.359079e+00
   2.794511e-04    8.092085e+06    8.092089e+06    8.857032e-06    8.092085e+06   -4.415781e+00
   2.814115e-04    8.007520e+06    8.007523e+06    8.857032e-06    8.007520e+06   -3.236474e+00
   2.833857e-04    7.923835e+06    7.923840e+06    8.857032e-06    7.923835e+06   -5.448459e+00
   2.853738e-04    7.841025e+06    7.841031e+06    8.857032e-06    7.841025e+06   -6.305299e+00
   2.873758e-04    7.759082e+06    7.759086e+06    8.857032e-06    7.759082e+06   -3.812188e+00
   2.893918e-04    7.677993e+06    7.677996e+06    8.857032e-06    7.677993e+06   -3.678320e+00
   2.914220e-04    7.597746e+06    7.597753e+06    8.857032e-06    7.597746e+06   -6.770675e+00
   2.934665e-04    7.518342e+06    7.518348e+06    8.857032e-06    7.518342e+06   -5.422792e+00
   2.955252e-04    7.439767e+06    7.439771e+06    8.857032e-06    7.439767e+06   -3.404638e+00
   2.975984e-04    7.362010e+06    7.362014e+06    8.857032e-06    7.362010e+06   -4.562328e+00
   2.996862e-04    7.285063e+06    7.285069e+06    8.857032e-06    7.285063e+06   -6.268794e+00
   3.017886e-04    7.208923e+06    7.208928e+06    8.857032e-06    7.208923e+06   -4.599090e+00
   3.039058e-04    7.133577e+06    7.133581e+06    8.857032e-06    7.133577e+06   -3.600821e+00
   3.060378e-04    7.059015e+06    7.059021e+06    8.857032e-06    7.059015e+06   -5.630406e+00
   3.081847e-04    6.985232e+06    6.985239e+06    8.857032e-06    6.985232e+06   -6.368311e+00
   3.103468e-04    6.912223e+06    6.912227e+06    8.857032e-06    6.912223e+06   -3.781908e+00
   3.125240e-04    6.839973e+06    6.839977e+06    8.857032e-06    6.839973e+06   -4.040156e+00
   3.147164e-04    6.768475e+06    6.768481e+06    8.857032e-06    6.768475e+06   -6.058324e+00
   3.169243e-04    6.697727e+06    6.697732e+06    8.857032e-06    6.697727e+06   -5.483979e+00
   3.191476e-04    6.627718e+06    6.627722e+06    8.857032e-06    6.627718e+06   -3.761758e+00
   3.213865e-04    6.558437e+06    6.558442e+06    8.857032e-06    6.558437e+06   -4.872266e+00
   3.236412e-04    6.489879e+06    6.489885e+06    8.857032e-06    6.489879e+06   -6.958573e+00
   3.259116e-04    6.422040e+06    6.422045e+06    8.857032e-06    6.422040e+06   -4.312468e+00
   3.281980e-04    6.354908e+06    6.354912e+06    8.857032e-06    6.354908e+06   -3.794507e+00
   3.305005e-04    6.288474e+06    6.288480e+06    8.857032e-06    6.288474e+06   -5.715007e+00
   3.328190e-04    6.222735e+06    6.222742e+06    8.857032e-06    6.222735e+06   -6.417488e+00
   3.351539e-04    6.157685e+06    6.157690e+06    8.857032e-06    6.157685e+06   -4.097031e+00
   3.375051e-04    6.093312e+06    6.093317e+06    8.857032e-06    6.093312e+06   -4.420022e+00
   3.398728e-04    6.029608e+06    6.029616e+06    8.857032e-06    6.029608e+06   -7.279759e+00
   3.422572e-04    5.966575e+06    5.966580e+06    8.857032e-06    5.966575e+06   -5.116352e+00
   3.446582e-04    5.904198e+06    5.904202e+06    8.857032e-06    5.904198e+06   -3.767824e+00
   3.470761e-04    5.842470e+06    5.842475e+06    8.857032e-06    5.842470e+06   -5.129538e+00
   3.495110e-04    5.781386e+06    5.781393e+06    8.857032e-06    5.781386e+06   -6.780567e+00
   3.519629e-04    5.720944e+06    5.720948e+06    8.857032e-06    5.720944e+06   -4.539137e+00
   3.544321e-04    5.661130e+06    5.661135e+06    8.857032e-06    5.661130e+06   -4.199290e+00
   3.569185e-04    5.601939e+06    5.601945e+06    8.857032e-06    5.601939e+06   -6.265381e+00
   3.594224e-04    5.543369e+06    5.543374e+06    8.857032e-06    5.543369e+06   -5.645865e+00
   3.619439e-04    5.485411e+06    5.485415e+06    8.857032e-06    5.485411e+06   -3.992806e+00
   3.644831e-04    5.428055e+06    5.428060e+06    8.857032e-06    5.428055e+06   -4.563912e+00
   3.670401e-04    5.371298e+06    5.371304e+06    8.857032e-06    5.371298e+06   -6.435397e+00
   3.696150e-04    5.315136e+06    5.315141e+06    8.857032e-06    5.315136e+06   -5.057433e+00
   3.722080e-04    5.259560e+06    5.259564e+06    8.857032e-06    5.259560e+06   -4.159271e+00
   3.748191e-04    5.204562e+06    5.204567e+06    8.857032e-06    5.204562e+06   -5.510858e+00
   3.774486e-04    5.150139e+06    5.150144e+06    8.857032e-06    5.150139e+06   -5.958543e+00
   3.800966e-04    5.096286e+06    5.096290e+06    8.857032e-06    5.096286e+06   -4.391757e+00
   3.827631e-04    5.042994e+06    5.042998e+06    8.857032e-06    5.042994e+06   -4.238986e+00
   3.854483e-04    4.990256e+06    4.990262e+06    8.857032e-06    4.990256e+06   -6.018643e+00
   3.881524e-04    4.938072e+06    4.938077e+06    8.857032e-06    4.938072e+06   -5.611982e+00
   3.908754e-04    4.886433e+06    4.886437e+06    8.857032e-06    4.886433e+06   -4.248252e+00
   3.936175e-04    4.835331e+06    4.835336e+06    8.857032e-06    4.835331e+06   -4.992131e+00
   3.963789e-04    4.784762e+06    4.784768e+06    8.857032e-06    4.784762e+06   -6.092946e+00
   3.991596e-04    4.734724e+06    4.734729e+06    8.857032e-06    4.734724e+06   -4.836875e+00
   4.019599e-04    4.685208e+06    4.685212e+06    8.857032e-06    4.685208e+06   -4.198032e+00
   4.047798e-04    4.636206e+06    4.636212e+06    8.857032e-06    4.636206e+06   -5.559749e+00
   4.076194e-04    4.587717e+06    4.587723e+06    8.857032e-06    4.587717e+06   -6.176728e+00
   4.104790e-04    4.539736e+06    4.539741e+06    8.857032e-06    4.539736e+06   -4.432514e+00
   4.133587e-04    4.492255e+06    4.492260e+06    8.857032e-06    4.492255e+06   -4.660233e+00
