# All units in [AU] if not specified
{"name":"Al", "Z":13, "Zstar":8.353403029345795, "A":28,  "μ[AU]": -1.593e+01, "T[AU]": 3.675e+00, "rs[AU]": 5.441e+00 }
	 r[AU]  	 n[AU]  	 nf[AU]  	 nb[AU]     n_ion[AU]    (φ_e+φ_ions)[AU]   φtotal[AU]     δVxc/δρ[Au]  
    1.00000e-03     1.41168e+05     8.28928e-01     1.41167e+05     0.00000e+00    -4.84664e+01     1.29513e+04    -3.86424e+01
    1.20928e-03     1.06056e+05     7.53674e-01     1.06055e+05     0.00000e+00    -4.72491e+01     1.07027e+04    -3.51428e+01
    1.46235e-03     7.96582e+04     6.85222e-01     7.96575e+04     0.00000e+00    -4.61903e+01     8.84336e+03    -3.19587e+01
    1.76839e-03     5.98136e+04     6.22952e-01     5.98130e+04     0.00000e+00    -4.52543e+01     7.30584e+03    -2.90612e+01
    2.13847e-03     4.48967e+04     5.66301e-01     4.48961e+04     0.00000e+00    -4.44111e+01     6.03446e+03    -2.64243e+01
    2.58600e-03     3.36856e+04     5.14758e-01     3.36850e+04     0.00000e+00    -4.36358e+01     4.98319e+03    -2.40242e+01
    3.12719e-03     2.52608e+04     4.67860e-01     2.52604e+04     0.00000e+00    -4.29073e+01     4.11394e+03    -2.18393e+01
    3.78164e-03     1.89312e+04     4.25182e-01     1.89308e+04     0.00000e+00    -4.22076e+01     3.39521e+03    -1.98499e+01
    4.57305e-03     1.41769e+04     3.86341e-01     1.41765e+04     0.00000e+00    -4.15212e+01     2.80098e+03    -1.80380e+01
    5.53008e-03     1.06069e+04     3.50988e-01     1.06066e+04     0.00000e+00    -4.08347e+01     2.30970e+03    -1.63875e+01
    6.68740e-03     7.92733e+03     3.18804e-01     7.92701e+03     0.00000e+00    -4.01360e+01     1.90358e+03    -1.48835e+01
    8.08692e-03     5.91690e+03     2.89502e-01     5.91661e+03     0.00000e+00    -3.94146e+01     1.56788e+03    -1.35125e+01
    9.77933e-03     4.40940e+03     2.62817e-01     4.40914e+03     0.00000e+00    -3.86607e+01     1.29043e+03    -1.22623e+01
    1.18259e-02     3.27985e+03     2.38514e-01     3.27961e+03     0.00000e+00    -3.78654e+01     1.06117e+03    -1.11217e+01
    1.43008e-02     2.43423e+03     2.16375e-01     2.43401e+03     0.00000e+00    -3.70206e+01     8.71780e+02    -1.00805e+01
    1.72936e-02     1.80182e+03     1.96205e-01     1.80162e+03     0.00000e+00    -3.61186e+01     7.15364e+02    -9.12959e+00
    2.09128e-02     1.32948e+03     1.77825e-01     1.32930e+03     0.00000e+00    -3.51524e+01     5.86237e+02    -8.26049e+00
    2.52894e-02     9.77266e+02     1.61076e-01     9.77105e+02     0.00000e+00    -3.41157e+01     4.79695e+02    -7.46560e+00
    3.05818e-02     7.15141e+02     1.45813e-01     7.14996e+02     0.00000e+00    -3.30027e+01     3.91847e+02    -6.73798e+00
    3.69819e-02     5.20529e+02     1.31904e-01     5.20397e+02     0.00000e+00    -3.18088e+01     3.19475e+02    -6.07134e+00
    4.47214e-02     3.76465e+02     1.19235e-01     3.76346e+02     0.00000e+00    -3.05305e+01     2.59920e+02    -5.45995e+00
    5.40805e-02     2.70202e+02     1.07698e-01     2.70094e+02     0.00000e+00    -2.91659e+01     2.10978e+02    -4.89860e+00
    6.53983e-02     1.92163e+02     9.72020e-02     1.92065e+02     0.00000e+00    -2.77148e+01     1.70828e+02    -4.38254e+00
    7.90847e-02     1.35159e+02     8.76635e-02     1.35071e+02     0.00000e+00    -2.61798e+01     1.37962e+02    -3.90746e+00
    9.56352e-02     9.37887e+01     7.90086e-02     9.37096e+01     0.00000e+00    -2.45662e+01     1.11128e+02    -3.46932e+00
    1.15649e-01     6.40052e+01     7.11732e-02     6.39340e+01     0.00000e+00    -2.28833e+01     8.92864e+01    -3.06443e+00
    1.39852e-01     4.27705e+01     6.40982e-02     4.27064e+01     0.00000e+00    -2.11446e+01     7.15717e+01    -2.68917e+00
    1.69120e-01     2.78144e+01     5.77307e-02     2.77567e+01     0.00000e+00    -1.93688e+01     5.72607e+01    -2.34003e+00
    2.04513e-01     1.74435e+01     5.20199e-02     1.73915e+01     0.00000e+00    -1.75804e+01     4.57464e+01    -2.01337e+00
    2.47313e-01     1.04041e+01     4.69145e-02     1.03572e+01     0.00000e+00    -1.58099e+01     3.65162e+01    -1.70552e+00
    2.99070e-01     5.78446e+00     4.23601e-02     5.74210e+00     0.00000e+00    -1.40939e+01     2.91353e+01    -1.41359e+00
    3.61658e-01     2.93327e+00     3.82982e-02     2.89497e+00     0.00000e+00    -1.24735e+01     2.32331e+01    -1.13883e+00
    4.37345e-01     1.35753e+00     3.46721e-02     1.32285e+00     0.00000e+00    -1.09882e+01     1.84977e+01    -8.92318e-01
    5.28871e-01     6.06227e-01     3.14346e-02     5.74792e-01     0.00000e+00    -9.66614e+00     1.46756e+01    -6.92528e-01
    6.39551e-01     2.84016e-01     2.85454e-02     2.55470e-01     0.00000e+00    -8.51584e+00     1.15719e+01    -5.48133e-01
    7.73395e-01     1.46526e-01     2.59610e-02     1.20565e-01     0.00000e+00    -7.52841e+00     9.04169e+00    -4.47837e-01
    9.35248e-01     8.39836e-02     2.36434e-02     6.03402e-02     0.00000e+00    -6.68594e+00     6.97520e+00    -3.78383e-01
    1.00000e+00     7.08317e-02     2.28941e-02     4.79375e-02     0.00000e+00    -6.41192e+00     6.34916e+00    -3.59455e-01
    1.13097e+00     5.32804e-02     2.15861e-02     3.16942e-02     0.00000e+00    -5.94882e+00     5.30678e+00    -3.29984e-01
    1.33593e+00     3.82245e-02     1.99507e-02     1.82736e-02     0.00000e+00    -5.39641e+00     4.09572e+00    -2.98760e-01
    1.36766e+00     3.66633e-02     1.97352e-02     1.69280e-02     0.00000e+00    -5.32247e+00     3.94390e+00    -2.95062e-01
    1.65388e+00     2.70268e-02     1.80713e-02     8.95556e-03     0.00000e+00    -4.78648e+00     2.83490e+00    -2.69418e-01
    1.67186e+00     2.66183e-02     1.79835e-02     8.63480e-03     0.00000e+00    -4.75730e+00     2.77955e+00    -2.68199e-01
    2.00779e+00     2.10631e-02     1.65631e-02     4.50003e-03     0.00000e+00    -4.30655e+00     1.92931e+00    -2.50167e-01
    2.34372e+00     1.79488e-02     1.54947e-02     2.45408e-03     0.00000e+00    -3.95943e+00     1.34838e+00    -2.38561e-01
    2.67965e+00     1.60186e-02     1.46671e-02     1.35152e-03     0.00000e+00    -3.67708e+00     9.35378e-01    -2.30645e-01
    3.01558e+00     1.47446e-02     1.40149e-02     7.29680e-04     0.00000e+00    -3.43745e+00     6.34574e-01    -2.25048e-01
    3.35152e+00     1.38710e-02     1.34975e-02     3.73492e-04     0.00000e+00    -3.22705e+00     4.12887e-01    -2.21012e-01
    3.68745e+00     1.32604e-02     1.30881e-02     1.72235e-04     0.00000e+00    -3.03709e+00     2.49473e-01    -2.18084e-01
    4.02338e+00     1.28330e-02     1.27687e-02     6.43649e-05     0.00000e+00    -2.86162e+00     1.30578e-01    -2.15978e-01
    4.35931e+00     1.25402e-02     1.25266e-02     1.36851e-05     0.00000e+00    -2.69640e+00     4.68047e-02    -2.14507e-01
    4.69524e+00     1.23507e-02     1.23506e-02    -6.40740e-23     0.00000e+00    -2.53832e+00    -8.46623e-03    -2.13542e-01
    5.03117e+00     1.22438e-02     1.22438e-02    -6.56188e-22     0.00000e+00    -2.38500e+00    -4.00184e-02    -2.12993e-01
    5.36710e+00     1.22057e-02     1.22057e-02    -9.52303e-22     0.00000e+00    -2.23459e+00    -5.13395e-02    -2.12797e-01
    5.70303e+00     1.22269e-02     1.22269e-02    -7.83081e-22     1.48209e-03    -2.08562e+00    -4.50408e-02    -2.12906e-01
    6.03896e+00     1.22451e-02     1.22451e-02    -6.47121e-22     1.48209e-03    -1.95343e+00    -3.96479e-02    -2.13000e-01
    6.37489e+00     1.22607e-02     1.22607e-02    -5.37414e-22     1.48209e-03    -1.83535e+00    -3.50178e-02    -2.13080e-01
    6.71082e+00     1.22743e-02     1.22743e-02    -4.47954e-22     1.48209e-03    -1.72926e+00    -3.10058e-02    -2.13150e-01
    7.04675e+00     1.22861e-02     1.22861e-02    -3.74757e-22     1.48209e-03    -1.63343e+00    -2.75218e-02    -2.13210e-01
    7.38269e+00     1.22963e-02     1.22964e-02    -3.14642e-22     1.48209e-03    -1.54645e+00    -2.44883e-02    -2.13263e-01
    7.71862e+00     1.23053e-02     1.23053e-02    -2.65016e-22     1.48209e-03    -1.46716e+00    -2.18362e-02    -2.13309e-01
    8.05455e+00     1.23132e-02     1.23132e-02    -2.23796e-22     1.48209e-03    -1.39459e+00    -1.95055e-02    -2.13350e-01
    8.39048e+00     1.23202e-02     1.23202e-02    -1.89544e-22     1.48209e-03    -1.32792e+00    -1.74581e-02    -2.13386e-01
    8.72641e+00     1.23264e-02     1.23264e-02    -1.60718e-22     1.48209e-03    -1.26646e+00    -1.56378e-02    -2.13417e-01
    9.06234e+00     1.23318e-02     1.23318e-02    -1.36736e-22     1.48209e-03    -1.20963e+00    -1.40390e-02    -2.13445e-01
    9.39827e+00     1.23366e-02     1.23366e-02    -1.16460e-22     1.48209e-03    -1.15694e+00    -1.26131e-02    -2.13470e-01
    9.73420e+00     1.23409e-02     1.23409e-02    -9.94918e-23     1.48209e-03    -1.10794e+00    -1.13550e-02    -2.13492e-01
    1.00701e+01     1.23448e-02     1.23448e-02    -8.50483e-23     1.48209e-03    -1.06226e+00    -1.02268e-02    -2.13511e-01
    1.04061e+01     1.23482e-02     1.23482e-02    -7.28840e-23     1.48209e-03    -1.01959e+00    -9.22611e-03    -2.13529e-01
    1.07420e+01     1.23512e-02     1.23512e-02    -6.25498e-23     1.48209e-03    -9.79622e-01    -8.33144e-03    -2.13545e-01
    1.10779e+01     1.23540e-02     1.23540e-02    -5.37044e-23     1.48209e-03    -9.42118e-01    -7.52574e-03    -2.13559e-01
    1.14139e+01     1.23564e-02     1.23564e-02    -4.61696e-23     1.48209e-03    -9.06857e-01    -6.80386e-03    -2.13571e-01
    1.17498e+01     1.23586e-02     1.23586e-02    -3.97402e-23     1.48209e-03    -8.73646e-01    -6.15624e-03    -2.13582e-01
    1.20857e+01     1.23606e-02     1.23605e-02    -3.42494e-23     1.48209e-03    -8.42312e-01    -5.57500e-03    -2.13592e-01
    1.24216e+01     1.23623e-02     1.23624e-02    -2.95752e-23     1.48209e-03    -8.12702e-01    -5.05527e-03    -2.13602e-01
    1.27576e+01     1.23639e-02     1.23639e-02    -2.55609e-23     1.48209e-03    -7.84676e-01    -4.58663e-03    -2.13610e-01
    1.30935e+01     1.23654e-02     1.23653e-02    -2.20878e-23     1.48209e-03    -7.58106e-01    -4.16100e-03    -2.13617e-01
    1.34294e+01     1.23667e-02     1.23667e-02    -1.91122e-23     1.48209e-03    -7.32887e-01    -3.77826e-03    -2.13624e-01
    1.37654e+01     1.23679e-02     1.23679e-02    -1.65472e-23     1.48209e-03    -7.08918e-01    -3.43208e-03    -2.13630e-01
    1.41013e+01     1.23689e-02     1.23689e-02    -1.43350e-23     1.48209e-03    -6.86106e-01    -3.11885e-03    -2.13635e-01
    1.44372e+01     1.23699e-02     1.23699e-02    -1.24378e-23     1.48209e-03    -6.64373e-01    -2.83715e-03    -2.13640e-01
    1.47732e+01     1.23708e-02     1.23708e-02    -1.08004e-23     1.48209e-03    -6.43642e-01    -2.58227e-03    -2.13645e-01
    1.51091e+01     1.23716e-02     1.23716e-02    -9.35705e-24     1.48209e-03    -6.23842e-01    -2.34669e-03    -2.13649e-01
    1.54450e+01     1.23723e-02     1.23723e-02    -8.11771e-24     1.48209e-03    -6.04916e-01    -2.13457e-03    -2.13652e-01
    1.57810e+01     1.23729e-02     1.23730e-02    -7.05082e-24     1.48209e-03    -5.86807e-01    -1.94317e-03    -2.13656e-01
    1.61169e+01     1.23735e-02     1.23735e-02    -6.10936e-24     1.48209e-03    -5.69460e-01    -1.76607e-03    -2.13659e-01
    1.64528e+01     1.23741e-02     1.23741e-02    -5.29502e-24     1.48209e-03    -5.52830e-01    -1.60539e-03    -2.13662e-01
    1.67887e+01     1.23746e-02     1.23746e-02    -4.59409e-24     1.48209e-03    -5.36875e-01    -1.46038e-03    -2.13664e-01
    1.71247e+01     1.23750e-02     1.23751e-02    -3.98507e-24     1.48209e-03    -5.21553e-01    -1.32827e-03    -2.13666e-01
    1.74606e+01     1.23754e-02     1.23755e-02    -3.45918e-24     1.48209e-03    -5.06828e-01    -1.20867e-03    -2.13669e-01
    1.77965e+01     1.23758e-02     1.23758e-02    -3.00627e-24     1.48209e-03    -4.92666e-01    -1.10072e-03    -2.13670e-01
    1.81325e+01     1.23762e-02     1.23762e-02    -2.60446e-24     1.48209e-03    -4.79033e-01    -1.00028e-03    -2.13672e-01
    1.84684e+01     1.23765e-02     1.23765e-02    -2.26326e-24     1.48209e-03    -4.65902e-01    -9.10866e-04    -2.13674e-01
    1.88043e+01     1.23767e-02     1.23767e-02    -1.97240e-24     1.48209e-03    -4.53247e-01    -8.31040e-04    -2.13675e-01
    1.91403e+01     1.23770e-02     1.23770e-02    -1.71985e-24     1.48209e-03    -4.41042e-01    -7.58500e-04    -2.13676e-01
    1.94762e+01     1.23772e-02     1.23772e-02    -1.50418e-24     1.48209e-03    -4.29262e-01    -6.93688e-04    -2.13677e-01
    1.98121e+01     1.23774e-02     1.23774e-02    -1.31453e-24     1.48209e-03    -4.17885e-01    -6.34073e-04    -2.13679e-01
    2.01481e+01     1.23776e-02     1.23776e-02    -1.15131e-24     1.48209e-03    -4.06891e-01    -5.80425e-04    -2.13679e-01
    2.04840e+01     1.23778e-02     1.23778e-02    -9.95200e-25     1.48209e-03    -3.96255e-01    -5.26682e-04    -2.13680e-01
    2.08199e+01     1.23779e-02     1.23779e-02    -8.56310e-25     1.48209e-03    -3.85965e-01    -4.76457e-04    -2.13681e-01
    2.11558e+01     1.23781e-02     1.23781e-02    -7.33461e-25     1.48209e-03    -3.76003e-01    -4.29685e-04    -2.13682e-01
    2.14918e+01     1.23782e-02     1.23783e-02    -6.32161e-25     1.48209e-03    -3.66358e-01    -3.89149e-04    -2.13683e-01
    2.18277e+01     1.23784e-02     1.23784e-02    -5.44333e-25     1.48209e-03    -3.57012e-01    -3.52213e-04    -2.13683e-01
    2.21636e+01     1.23785e-02     1.23785e-02    -4.69472e-25     1.48209e-03    -3.47952e-01    -3.19140e-04    -2.13684e-01
    2.24996e+01     1.23786e-02     1.23786e-02    -4.06272e-25     1.48209e-03    -3.39165e-01    -2.89819e-04    -2.13685e-01
    2.28355e+01     1.23787e-02     1.23787e-02    -3.48011e-25     1.48209e-03    -3.30637e-01    -2.61399e-04    -2.13685e-01
    2.31714e+01     1.23788e-02     1.23788e-02    -3.01083e-25     1.48209e-03    -3.22359e-01    -2.37344e-04    -2.13685e-01
    2.35074e+01     1.23788e-02     1.23789e-02    -2.59667e-25     1.48209e-03    -3.14320e-01    -2.15045e-04    -2.13686e-01
    2.38433e+01     1.23789e-02     1.23789e-02    -2.25801e-25     1.48209e-03    -3.06509e-01    -1.95924e-04    -2.13686e-01
    2.41792e+01     1.23790e-02     1.23790e-02    -1.95831e-25     1.48209e-03    -2.98916e-01    -1.78177e-04    -2.13686e-01
    2.45152e+01     1.23790e-02     1.23790e-02    -1.69003e-25     1.48209e-03    -2.91533e-01    -1.61492e-04    -2.13687e-01
    2.48511e+01     1.23791e-02     1.23791e-02    -1.41357e-25     1.48209e-03    -2.84346e-01    -1.43353e-04    -2.13687e-01
    2.51870e+01     1.23791e-02     1.23792e-02    -1.13582e-25     1.48209e-03    -2.77349e-01    -1.23902e-04    -2.13687e-01
    2.55229e+01     1.23792e-02     1.23792e-02    -9.00099e-26     1.48209e-03    -2.70538e-01    -1.06099e-04    -2.13688e-01
    2.58589e+01     1.23793e-02     1.23793e-02    -7.17582e-26     1.48209e-03    -2.63906e-01    -9.12277e-05    -2.13688e-01
    2.61948e+01     1.23793e-02     1.23793e-02    -5.55101e-26     1.48209e-03    -2.57444e-01    -7.68655e-05    -2.13688e-01
    2.65307e+01     1.23794e-02     1.23794e-02    -4.20875e-26     1.48209e-03    -2.51148e-01    -6.39229e-05    -2.13688e-01
    2.68667e+01     1.23794e-02     1.23794e-02    -3.17436e-26     1.48209e-03    -2.45010e-01    -5.29805e-05    -2.13689e-01
    2.72026e+01     1.23794e-02     1.23794e-02    -2.33438e-26     1.48209e-03    -2.39025e-01    -4.31776e-05    -2.13689e-01
    2.75385e+01     1.23795e-02     1.23795e-02    -1.53894e-26     1.48209e-03    -2.33185e-01    -3.27004e-05    -2.13689e-01
    2.78745e+01     1.23795e-02     1.23795e-02    -9.75940e-27     1.48209e-03    -2.27488e-01    -2.41440e-05    -2.13689e-01
    2.82104e+01     1.23795e-02     1.23795e-02    -6.31740e-27     1.48209e-03    -2.21928e-01    -1.80840e-05    -2.13689e-01
    2.85463e+01     1.23795e-02     1.23795e-02    -3.06082e-27     1.48209e-03    -2.16497e-01    -1.11446e-05    -2.13689e-01
    2.88823e+01     1.23796e-02     1.23796e-02    -9.80187e-28     1.48209e-03    -2.11195e-01    -5.21057e-06    -2.13690e-01
    2.92182e+01     1.23796e-02     1.23796e-02     2.01739e-11     1.48209e-03    -2.06009e-01     6.10187e-06    -2.13690e-01
    2.95541e+01     1.23796e-02     1.23796e-02     9.21670e-11     1.48209e-03    -2.00941e-01     1.67862e-05    -2.13690e-01
    2.98901e+01     1.23797e-02     1.23797e-02     1.58480e-10     1.48209e-03    -1.95990e-01     2.40742e-05    -2.13690e-01
    3.02260e+01     1.23797e-02     1.23797e-02     2.53145e-10     1.48209e-03    -1.91147e-01     3.29044e-05    -2.13690e-01
    3.05619e+01     1.23797e-02     1.23797e-02     3.63091e-10     1.48209e-03    -1.86411e-01     4.18531e-05    -2.13690e-01
    3.08978e+01     1.23797e-02     1.23798e-02     4.68338e-10     1.48209e-03    -1.81778e-01     4.96049e-05    -2.13690e-01
    3.12338e+01     1.23797e-02     1.23798e-02     5.70450e-10     1.48209e-03    -1.77246e-01     5.65663e-05    -2.13690e-01
    3.15697e+01     1.23798e-02     1.23798e-02     6.25054e-10     1.48209e-03    -1.72813e-01     6.00915e-05    -2.13691e-01
    3.19056e+01     1.23798e-02     1.23798e-02     7.17143e-10     1.48209e-03    -1.68472e-01     6.58670e-05    -2.13691e-01
    3.22416e+01     1.23798e-02     1.23798e-02     8.52180e-10     1.48209e-03    -1.64219e-01     7.38914e-05    -2.13691e-01
    3.25775e+01     1.23798e-02     1.23799e-02     9.62024e-10     1.48209e-03    -1.60055e-01     8.00865e-05    -2.13691e-01
    3.29134e+01     1.23798e-02     1.23799e-02     1.04640e-09     1.48209e-03    -1.55977e-01     8.46839e-05    -2.13691e-01
    3.32494e+01     1.23799e-02     1.23799e-02     1.18892e-09     1.48209e-03    -1.51979e-01     9.22186e-05    -2.13691e-01
    3.35853e+01     1.23799e-02     1.23799e-02     1.29187e-09     1.48209e-03    -1.48064e-01     9.74583e-05    -2.13691e-01
    3.39212e+01     1.23799e-02     1.23799e-02     1.29649e-09     1.48209e-03    -1.44230e-01     9.76551e-05    -2.13691e-01
    3.42572e+01     1.23799e-02     1.23799e-02     1.36761e-09     1.48209e-03    -1.40469e-01     1.01213e-04    -2.13691e-01
    3.45931e+01     1.23799e-02     1.23799e-02     1.40285e-09     1.48209e-03    -1.36782e-01     1.02939e-04    -2.13691e-01
    3.49290e+01     1.23799e-02     1.23799e-02     1.42791e-09     1.48209e-03    -1.33165e-01     1.04168e-04    -2.13691e-01
    3.52649e+01     1.23799e-02     1.23799e-02     1.44074e-09     1.48209e-03    -1.29620e-01     1.04780e-04    -2.13691e-01
    3.56009e+01     1.23799e-02     1.23799e-02     1.48504e-09     1.48209e-03    -1.26139e-01     1.06931e-04    -2.13691e-01
    3.59368e+01     1.23799e-02     1.23799e-02     1.51299e-09     1.48209e-03    -1.22725e-01     1.08270e-04    -2.13691e-01
    3.62727e+01     1.23799e-02     1.23800e-02     1.53319e-09     1.48209e-03    -1.19373e-01     1.09233e-04    -2.13691e-01
    3.66087e+01     1.23799e-02     1.23799e-02     1.51733e-09     1.48209e-03    -1.16085e-01     1.08467e-04    -2.13691e-01
    3.69446e+01     1.23799e-02     1.23799e-02     1.51464e-09     1.48209e-03    -1.12856e-01     1.08344e-04    -2.13691e-01
    3.72805e+01     1.23799e-02     1.23799e-02     1.50014e-09     1.48209e-03    -1.09686e-01     1.07634e-04    -2.13691e-01
    3.76165e+01     1.23799e-02     1.23799e-02     1.52278e-09     1.48209e-03    -1.06571e-01     1.08737e-04    -2.13691e-01
    3.79524e+01     1.23799e-02     1.23800e-02     1.54039e-09     1.48209e-03    -1.03512e-01     1.09582e-04    -2.13691e-01
    3.82883e+01     1.23799e-02     1.23799e-02     1.51035e-09     1.48209e-03    -1.00508e-01     1.08146e-04    -2.13691e-01
    3.86243e+01     1.23799e-02     1.23799e-02     1.45702e-09     1.48209e-03    -9.75571e-02     1.05567e-04    -2.13691e-01
    3.89602e+01     1.23799e-02     1.23799e-02     1.43616e-09     1.48209e-03    -9.46560e-02     1.04561e-04    -2.13691e-01
