# All units in [AU] if not specified
{"name":"Al", "Z":13, "Zstar":5.264251708984375, "A":28,  "μ[AU]": -3.743e+00, "T[AU]": 1.838e+00, "rs[AU]": 3.000e+00 }
	 r[AU]  	 n[AU]  	 nf[AU]  	 nb[AU]     n_ion[AU]    (φ_e+φ_ions)[AU]   φtotal[AU]     δVxc/δρ[Au]  
    1.00000e-03     1.41513e+05     4.31177e+00     1.41334e+05     0.00000e+00    -5.03031e+01     1.29493e+04    -3.86736e+01
    1.02617e-03     1.36119e+05     4.25630e+00     1.35947e+05     0.00000e+00    -5.02928e+01     1.26177e+04    -3.81779e+01
    1.05303e-03     1.30930e+05     4.20154e+00     1.30764e+05     0.00000e+00    -5.02815e+01     1.22946e+04    -3.76885e+01
    1.08059e-03     1.25939e+05     4.14748e+00     1.25779e+05     0.00000e+00    -5.02693e+01     1.19797e+04    -3.72054e+01
    1.10888e-03     1.21137e+05     4.09411e+00     1.20984e+05     0.00000e+00    -5.02562e+01     1.16729e+04    -3.67284e+01
    1.13790e-03     1.16519e+05     4.04143e+00     1.16371e+05     0.00000e+00    -5.02423e+01     1.13739e+04    -3.62575e+01
    1.16768e-03     1.12075e+05     3.98941e+00     1.11933e+05     0.00000e+00    -5.02274e+01     1.10825e+04    -3.57926e+01
    1.19825e-03     1.07801e+05     3.93807e+00     1.07664e+05     0.00000e+00    -5.02116e+01     1.07985e+04    -3.53337e+01
    1.22961e-03     1.03690e+05     3.88737e+00     1.03558e+05     0.00000e+00    -5.01950e+01     1.05218e+04    -3.48806e+01
    1.26179e-03     9.97345e+04     3.83733e+00     9.96076e+04     0.00000e+00    -5.01774e+01     1.02522e+04    -3.44333e+01
    1.29482e-03     9.59298e+04     3.78793e+00     9.58077e+04     0.00000e+00    -5.01590e+01     9.98943e+03    -3.39917e+01
    1.32871e-03     9.22699e+04     3.73915e+00     9.21523e+04     0.00000e+00    -5.01398e+01     9.73337e+03    -3.35558e+01
    1.36348e-03     8.87492e+04     3.69101e+00     8.86360e+04     0.00000e+00    -5.01197e+01     9.48384e+03    -3.31254e+01
    1.39917e-03     8.53624e+04     3.64347e+00     8.52534e+04     0.00000e+00    -5.00987e+01     9.24068e+03    -3.27005e+01
    1.43579e-03     8.21045e+04     3.59654e+00     8.19996e+04     0.00000e+00    -5.00769e+01     9.00372e+03    -3.22810e+01
    1.47337e-03     7.89706e+04     3.55022e+00     7.88696e+04     0.00000e+00    -5.00542e+01     8.77280e+03    -3.18669e+01
    1.51194e-03     7.59559e+04     3.50448e+00     7.58587e+04     0.00000e+00    -5.00307e+01     8.54778e+03    -3.14580e+01
    1.55151e-03     7.30559e+04     3.45933e+00     7.29623e+04     0.00000e+00    -5.00064e+01     8.32850e+03    -3.10544e+01
    1.59212e-03     7.02663e+04     3.41475e+00     7.01762e+04     0.00000e+00    -4.99812e+01     8.11481e+03    -3.06559e+01
    1.63379e-03     6.75828e+04     3.37075e+00     6.74961e+04     0.00000e+00    -4.99552e+01     7.90657e+03    -3.02625e+01
    1.67655e-03     6.50015e+04     3.32730e+00     6.49179e+04     0.00000e+00    -4.99283e+01     7.70365e+03    -2.98741e+01
    1.72043e-03     6.25184e+04     3.28441e+00     6.24380e+04     0.00000e+00    -4.99007e+01     7.50590e+03    -2.94907e+01
    1.76546e-03     6.01298e+04     3.24207e+00     6.00524e+04     0.00000e+00    -4.98722e+01     7.31320e+03    -2.91121e+01
    1.81167e-03     5.78321e+04     3.20027e+00     5.77576e+04     0.00000e+00    -4.98429e+01     7.12541e+03    -2.87384e+01
    1.85909e-03     5.56219e+04     3.15900e+00     5.55501e+04     0.00000e+00    -4.98127e+01     6.94242e+03    -2.83694e+01
    1.90775e-03     5.34958e+04     3.11826e+00     5.34267e+04     0.00000e+00    -4.97817e+01     6.76410e+03    -2.80051e+01
    1.95768e-03     5.14507e+04     3.07804e+00     5.13841e+04     0.00000e+00    -4.97499e+01     6.59032e+03    -2.76455e+01
    2.00892e-03     4.94834e+04     3.03833e+00     4.94193e+04     0.00000e+00    -4.97173e+01     6.42098e+03    -2.72904e+01
    2.06150e-03     4.75910e+04     2.99912e+00     4.75293e+04     0.00000e+00    -4.96839e+01     6.25596e+03    -2.69399e+01
    2.11546e-03     4.57706e+04     2.96042e+00     4.57112e+04     0.00000e+00    -4.96496e+01     6.09515e+03    -2.65938e+01
    2.17083e-03     4.40196e+04     2.92221e+00     4.39624e+04     0.00000e+00    -4.96146e+01     5.93845e+03    -2.62521e+01
    2.22765e-03     4.23353e+04     2.88449e+00     4.22802e+04     0.00000e+00    -4.95786e+01     5.78574e+03    -2.59147e+01
    2.28595e-03     4.07151e+04     2.84724e+00     4.06620e+04     0.00000e+00    -4.95419e+01     5.63693e+03    -2.55817e+01
    2.34579e-03     3.91566e+04     2.81048e+00     3.91055e+04     0.00000e+00    -4.95044e+01     5.49192e+03    -2.52529e+01
    2.40718e-03     3.76574e+04     2.77418e+00     3.76082e+04     0.00000e+00    -4.94660e+01     5.35060e+03    -2.49283e+01
    2.47019e-03     3.62154e+04     2.73834e+00     3.61680e+04     0.00000e+00    -4.94268e+01     5.21290e+03    -2.46077e+01
    2.53484e-03     3.48283e+04     2.70296e+00     3.47827e+04     0.00000e+00    -4.93867e+01     5.07871e+03    -2.42913e+01
    2.60119e-03     3.34940e+04     2.66803e+00     3.34501e+04     0.00000e+00    -4.93459e+01     4.94794e+03    -2.39789e+01
    2.66927e-03     3.22106e+04     2.63354e+00     3.21683e+04     0.00000e+00    -4.93042e+01     4.82051e+03    -2.36704e+01
    2.73913e-03     3.09761e+04     2.59950e+00     3.09353e+04     0.00000e+00    -4.92616e+01     4.69633e+03    -2.33659e+01
    2.81083e-03     2.97886e+04     2.56588e+00     2.97493e+04     0.00000e+00    -4.92182e+01     4.57532e+03    -2.30653e+01
    2.88440e-03     2.86464e+04     2.53270e+00     2.86085e+04     0.00000e+00    -4.91740e+01     4.45740e+03    -2.27684e+01
    2.95989e-03     2.75476e+04     2.49993e+00     2.75112e+04     0.00000e+00    -4.91289e+01     4.34249e+03    -2.24753e+01
    3.03736e-03     2.64908e+04     2.46759e+00     2.64557e+04     0.00000e+00    -4.90830e+01     4.23051e+03    -2.21860e+01
    3.11686e-03     2.54743e+04     2.43565e+00     2.54404e+04     0.00000e+00    -4.90363e+01     4.12139e+03    -2.19003e+01
    3.19844e-03     2.44965e+04     2.40412e+00     2.44639e+04     0.00000e+00    -4.89886e+01     4.01506e+03    -2.16182e+01
    3.28216e-03     2.35560e+04     2.37299e+00     2.35246e+04     0.00000e+00    -4.89401e+01     3.91144e+03    -2.13397e+01
    3.36806e-03     2.26513e+04     2.34226e+00     2.26210e+04     0.00000e+00    -4.88908e+01     3.81046e+03    -2.10647e+01
    3.45622e-03     2.17811e+04     2.31192e+00     2.17520e+04     0.00000e+00    -4.88406e+01     3.71206e+03    -2.07932e+01
    3.54668e-03     2.09442e+04     2.28196e+00     2.09161e+04     0.00000e+00    -4.87895e+01     3.61618e+03    -2.05252e+01
    3.63951e-03     2.01391e+04     2.25238e+00     2.01120e+04     0.00000e+00    -4.87375e+01     3.52274e+03    -2.02605e+01
    3.73477e-03     1.93648e+04     2.22318e+00     1.93387e+04     0.00000e+00    -4.86846e+01     3.43169e+03    -1.99992e+01
    3.83252e-03     1.86200e+04     2.19435e+00     1.85948e+04     0.00000e+00    -4.86309e+01     3.34296e+03    -1.97412e+01
    3.93283e-03     1.79036e+04     2.16589e+00     1.78794e+04     0.00000e+00    -4.85763e+01     3.25650e+03    -1.94865e+01
    4.03577e-03     1.72145e+04     2.13778e+00     1.71912e+04     0.00000e+00    -4.85207e+01     3.17224e+03    -1.92350e+01
    4.14140e-03     1.65518e+04     2.11003e+00     1.65293e+04     0.00000e+00    -4.84643e+01     3.09014e+03    -1.89866e+01
    4.24979e-03     1.59143e+04     2.08264e+00     1.58926e+04     0.00000e+00    -4.84069e+01     3.01013e+03    -1.87414e+01
    4.36103e-03     1.53012e+04     2.05559e+00     1.52803e+04     0.00000e+00    -4.83486e+01     2.93217e+03    -1.84993e+01
    4.47517e-03     1.47115e+04     2.02888e+00     1.46913e+04     0.00000e+00    -4.82894e+01     2.85619e+03    -1.82603e+01
    4.59230e-03     1.41443e+04     2.00252e+00     1.41249e+04     0.00000e+00    -4.82293e+01     2.78216e+03    -1.80243e+01
    4.71250e-03     1.35987e+04     1.97648e+00     1.35800e+04     0.00000e+00    -4.81683e+01     2.71002e+03    -1.77912e+01
    4.83584e-03     1.30740e+04     1.95078e+00     1.30560e+04     0.00000e+00    -4.81062e+01     2.63972e+03    -1.75611e+01
    4.96241e-03     1.25694e+04     1.92540e+00     1.25520e+04     0.00000e+00    -4.80433e+01     2.57122e+03    -1.73339e+01
    5.09230e-03     1.20840e+04     1.90034e+00     1.20672e+04     0.00000e+00    -4.79794e+01     2.50446e+03    -1.71096e+01
    5.22558e-03     1.16172e+04     1.87560e+00     1.16010e+04     0.00000e+00    -4.79145e+01     2.43941e+03    -1.68881e+01
    5.36236e-03     1.11682e+04     1.85117e+00     1.11526e+04     0.00000e+00    -4.78487e+01     2.37603e+03    -1.66693e+01
    5.50271e-03     1.07364e+04     1.82706e+00     1.07213e+04     0.00000e+00    -4.77818e+01     2.31426e+03    -1.64534e+01
    5.64673e-03     1.03211e+04     1.80324e+00     1.03066e+04     0.00000e+00    -4.77140e+01     2.25407e+03    -1.62401e+01
    5.79453e-03     9.92162e+03     1.77973e+00     9.90763e+03     0.00000e+00    -4.76452e+01     2.19542e+03    -1.60295e+01
    5.94619e-03     9.53746e+03     1.75651e+00     9.52398e+03     0.00000e+00    -4.75754e+01     2.13826e+03    -1.58216e+01
    6.10183e-03     9.16800e+03     1.73359e+00     9.15500e+03     0.00000e+00    -4.75046e+01     2.08257e+03    -1.56163e+01
    6.26153e-03     8.81268e+03     1.71095e+00     8.80013e+03     0.00000e+00    -4.74327e+01     2.02830e+03    -1.54136e+01
    6.42542e-03     8.47095e+03     1.68861e+00     8.45885e+03     0.00000e+00    -4.73598e+01     1.97542e+03    -1.52134e+01
    6.59360e-03     8.14231e+03     1.66654e+00     8.13063e+03     0.00000e+00    -4.72859e+01     1.92389e+03    -1.50157e+01
    6.76618e-03     7.82625e+03     1.64475e+00     7.81498e+03     0.00000e+00    -4.72110e+01     1.87368e+03    -1.48205e+01
    6.94327e-03     7.52229e+03     1.62324e+00     7.51142e+03     0.00000e+00    -4.71349e+01     1.82475e+03    -1.46278e+01
    7.12500e-03     7.22997e+03     1.60200e+00     7.21948e+03     0.00000e+00    -4.70579e+01     1.77707e+03    -1.44375e+01
    7.31149e-03     6.94885e+03     1.58102e+00     6.93873e+03     0.00000e+00    -4.69797e+01     1.73061e+03    -1.42495e+01
    7.50286e-03     6.67851e+03     1.56031e+00     6.66874e+03     0.00000e+00    -4.69005e+01     1.68534e+03    -1.40639e+01
    7.69923e-03     6.41852e+03     1.53986e+00     6.40910e+03     0.00000e+00    -4.68202e+01     1.64123e+03    -1.38806e+01
    7.90075e-03     6.16851e+03     1.51967e+00     6.15941e+03     0.00000e+00    -4.67387e+01     1.59824e+03    -1.36997e+01
    8.10754e-03     5.92808e+03     1.49973e+00     5.91930e+03     0.00000e+00    -4.66562e+01     1.55636e+03    -1.35210e+01
    8.31975e-03     5.69688e+03     1.48004e+00     5.68840e+03     0.00000e+00    -4.65725e+01     1.51554e+03    -1.33445e+01
    8.53751e-03     5.47454e+03     1.46060e+00     5.46636e+03     0.00000e+00    -4.64877e+01     1.47577e+03    -1.31702e+01
    8.76096e-03     5.26074e+03     1.44140e+00     5.25284e+03     0.00000e+00    -4.64018e+01     1.43702e+03    -1.29981e+01
    8.99027e-03     5.05515e+03     1.42244e+00     5.04753e+03     0.00000e+00    -4.63147e+01     1.39926e+03    -1.28281e+01
    9.22558e-03     4.85746e+03     1.40372e+00     4.85009e+03     0.00000e+00    -4.62265e+01     1.36247e+03    -1.26603e+01
    9.46704e-03     4.66736e+03     1.38524e+00     4.66025e+03     0.00000e+00    -4.61371e+01     1.32661e+03    -1.24946e+01
    9.71483e-03     4.48456e+03     1.36699e+00     4.47769e+03     0.00000e+00    -4.60465e+01     1.29168e+03    -1.23309e+01
    9.96910e-03     4.30879e+03     1.34896e+00     4.30216e+03     0.00000e+00    -4.59547e+01     1.25764e+03    -1.21692e+01
    1.02300e-02     4.13979e+03     1.33117e+00     4.13338e+03     0.00000e+00    -4.58617e+01     1.22447e+03    -1.20096e+01
    1.04978e-02     3.97728e+03     1.31359e+00     3.97109e+03     0.00000e+00    -4.57674e+01     1.19216e+03    -1.18520e+01
    1.07726e-02     3.82102e+03     1.29624e+00     3.81504e+03     0.00000e+00    -4.56720e+01     1.16067e+03    -1.16963e+01
    1.10545e-02     3.67078e+03     1.27910e+00     3.66500e+03     0.00000e+00    -4.55753e+01     1.12998e+03    -1.15425e+01
    1.13438e-02     3.52633e+03     1.26218e+00     3.52075e+03     0.00000e+00    -4.54774e+01     1.10008e+03    -1.13907e+01
    1.16408e-02     3.38744e+03     1.24546e+00     3.38204e+03     0.00000e+00    -4.53782e+01     1.07095e+03    -1.12407e+01
    1.19454e-02     3.25390e+03     1.22896e+00     3.24869e+03     0.00000e+00    -4.52778e+01     1.04257e+03    -1.10926e+01
    1.22581e-02     3.12552e+03     1.21266e+00     3.12048e+03     0.00000e+00    -4.51760e+01     1.01491e+03    -1.09463e+01
    1.25789e-02     3.00208e+03     1.19657e+00     2.99721e+03     0.00000e+00    -4.50730e+01     9.87968e+02    -1.08018e+01
    1.29082e-02     2.88341e+03     1.18068e+00     2.87870e+03     0.00000e+00    -4.49686e+01     9.61712e+02    -1.06591e+01
    1.32460e-02     2.76932e+03     1.16498e+00     2.76476e+03     0.00000e+00    -4.48630e+01     9.36130e+02    -1.05182e+01
    1.35927e-02     2.65963e+03     1.14948e+00     2.65523e+03     0.00000e+00    -4.47560e+01     9.11205e+02    -1.03790e+01
    1.39485e-02     2.55418e+03     1.13417e+00     2.54993e+03     0.00000e+00    -4.46477e+01     8.86919e+02    -1.02416e+01
    1.43136e-02     2.45281e+03     1.11906e+00     2.44870e+03     0.00000e+00    -4.45380e+01     8.63257e+02    -1.01058e+01
    1.46882e-02     2.35537e+03     1.10413e+00     2.35138e+03     0.00000e+00    -4.44270e+01     8.40203e+02    -9.97172e+00
    1.50727e-02     2.26169e+03     1.08939e+00     2.25783e+03     0.00000e+00    -4.43146e+01     8.17741e+02    -9.83928e+00
    1.54672e-02     2.17164e+03     1.07483e+00     2.16791e+03     0.00000e+00    -4.42008e+01     7.95856e+02    -9.70846e+00
    1.58720e-02     2.08507e+03     1.06045e+00     2.08147e+03     0.00000e+00    -4.40856e+01     7.74534e+02    -9.57925e+00
    1.62874e-02     2.00186e+03     1.04625e+00     1.99837e+03     0.00000e+00    -4.39689e+01     7.53760e+02    -9.45163e+00
    1.67137e-02     1.92188e+03     1.03222e+00     1.91851e+03     0.00000e+00    -4.38509e+01     7.33520e+02    -9.32557e+00
    1.71512e-02     1.84501e+03     1.01837e+00     1.84174e+03     0.00000e+00    -4.37314e+01     7.13800e+02    -9.20106e+00
    1.76001e-02     1.77111e+03     1.00469e+00     1.76795e+03     0.00000e+00    -4.36105e+01     6.94589e+02    -9.07808e+00
    1.80608e-02     1.70009e+03     9.91183e-01     1.69703e+03     0.00000e+00    -4.34881e+01     6.75871e+02    -8.95660e+00
    1.85335e-02     1.63183e+03     9.77841e-01     1.62886e+03     0.00000e+00    -4.33643e+01     6.57636e+02    -8.83660e+00
    1.90186e-02     1.56623e+03     9.64664e-01     1.56335e+03     0.00000e+00    -4.32390e+01     6.39871e+02    -8.71807e+00
    1.95163e-02     1.50317e+03     9.51650e-01     1.50039e+03     0.00000e+00    -4.31122e+01     6.22563e+02    -8.60099e+00
    2.00272e-02     1.44258e+03     9.38796e-01     1.43988e+03     0.00000e+00    -4.29838e+01     6.05702e+02    -8.48534e+00
    2.05513e-02     1.38434e+03     9.26102e-01     1.38173e+03     0.00000e+00    -4.28540e+01     5.89275e+02    -8.37110e+00
    2.10892e-02     1.32838e+03     9.13564e-01     1.32585e+03     0.00000e+00    -4.27226e+01     5.73272e+02    -8.25824e+00
    2.16412e-02     1.27460e+03     9.01180e-01     1.27215e+03     0.00000e+00    -4.25897e+01     5.57682e+02    -8.14676e+00
    2.22077e-02     1.22293e+03     8.88950e-01     1.22055e+03     0.00000e+00    -4.24552e+01     5.42495e+02    -8.03664e+00
    2.27889e-02     1.17327e+03     8.76870e-01     1.17097e+03     0.00000e+00    -4.23192e+01     5.27700e+02    -7.92785e+00
    2.33854e-02     1.12556e+03     8.64939e-01     1.12332e+03     0.00000e+00    -4.21816e+01     5.13288e+02    -7.82038e+00
    2.39975e-02     1.07971e+03     8.53154e-01     1.07755e+03     0.00000e+00    -4.20424e+01     4.99248e+02    -7.71422e+00
    2.46256e-02     1.03566e+03     8.41515e-01     1.03356e+03     0.00000e+00    -4.19016e+01     4.85572e+02    -7.60934e+00
    2.52701e-02     9.93342e+02     8.30019e-01     9.91307e+02     0.00000e+00    -4.17592e+01     4.72250e+02    -7.50573e+00
    2.59315e-02     9.52683e+02     8.18664e-01     9.50709e+02     0.00000e+00    -4.16152e+01     4.59272e+02    -7.40337e+00
    2.66102e-02     9.13621e+02     8.07449e-01     9.11707e+02     0.00000e+00    -4.14695e+01     4.46631e+02    -7.30224e+00
    2.73067e-02     8.76096e+02     7.96371e-01     8.74239e+02     0.00000e+00    -4.13222e+01     4.34318e+02    -7.20234e+00
    2.80214e-02     8.40048e+02     7.85429e-01     8.38246e+02     0.00000e+00    -4.11733e+01     4.22324e+02    -7.10364e+00
    2.87549e-02     8.05421e+02     7.74622e-01     8.03673e+02     0.00000e+00    -4.10227e+01     4.10642e+02    -7.00613e+00
    2.95075e-02     7.72160e+02     7.63947e-01     7.70463e+02     0.00000e+00    -4.08704e+01     3.99263e+02    -6.90980e+00
    3.02798e-02     7.40213e+02     7.53403e-01     7.38565e+02     0.00000e+00    -4.07164e+01     3.88179e+02    -6.81462e+00
    3.10723e-02     7.09528e+02     7.42988e-01     7.07929e+02     0.00000e+00    -4.05608e+01     3.77385e+02    -6.72058e+00
    3.18856e-02     6.80058e+02     7.32700e-01     6.78505e+02     0.00000e+00    -4.04034e+01     3.66871e+02    -6.62767e+00
    3.27202e-02     6.51755e+02     7.22539e-01     6.50247e+02     0.00000e+00    -4.02444e+01     3.56631e+02    -6.53587e+00
    3.35766e-02     6.24575e+02     7.12502e-01     6.23110e+02     0.00000e+00    -4.00836e+01     3.46658e+02    -6.44518e+00
    3.44554e-02     5.98475e+02     7.02587e-01     5.97051e+02     0.00000e+00    -3.99210e+01     3.36945e+02    -6.35556e+00
    3.53572e-02     5.73412e+02     6.92794e-01     5.72029e+02     0.00000e+00    -3.97568e+01     3.27486e+02    -6.26702e+00
    3.62826e-02     5.49346e+02     6.83120e-01     5.48003e+02     0.00000e+00    -3.95908e+01     3.18274e+02    -6.17954e+00
    3.72323e-02     5.26241e+02     6.73565e-01     5.24935e+02     0.00000e+00    -3.94230e+01     3.09303e+02    -6.09310e+00
    3.82068e-02     5.04057e+02     6.64126e-01     5.02787e+02     0.00000e+00    -3.92535e+01     3.00567e+02    -6.00768e+00
    3.92068e-02     4.82760e+02     6.54803e-01     4.81526e+02     0.00000e+00    -3.90822e+01     2.92060e+02    -5.92329e+00
    4.02330e-02     4.62315e+02     6.45593e-01     4.61115e+02     0.00000e+00    -3.89092e+01     2.83775e+02    -5.83989e+00
    4.12860e-02     4.42689e+02     6.36496e-01     4.41522e+02     0.00000e+00    -3.87343e+01     2.75709e+02    -5.75749e+00
    4.23666e-02     4.23851e+02     6.27510e-01     4.22717e+02     0.00000e+00    -3.85577e+01     2.67854e+02    -5.67607e+00
    4.34755e-02     4.05770e+02     6.18633e-01     4.04667e+02     0.00000e+00    -3.83793e+01     2.60206e+02    -5.59561e+00
    4.46134e-02     3.88418e+02     6.09865e-01     3.87344e+02     0.00000e+00    -3.81991e+01     2.52760e+02    -5.51610e+00
    4.57811e-02     3.71764e+02     6.01203e-01     3.70719e+02     0.00000e+00    -3.80170e+01     2.45509e+02    -5.43753e+00
    4.69794e-02     3.55783e+02     5.92647e-01     3.54767e+02     0.00000e+00    -3.78332e+01     2.38451e+02    -5.35990e+00
    4.82090e-02     3.40449e+02     5.84196e-01     3.39459e+02     0.00000e+00    -3.76475e+01     2.31578e+02    -5.28318e+00
    4.94708e-02     3.25736e+02     5.75848e-01     3.24772e+02     0.00000e+00    -3.74601e+01     2.24888e+02    -5.20736e+00
    5.07657e-02     3.11620e+02     5.67601e-01     3.10682e+02     0.00000e+00    -3.72708e+01     2.18375e+02    -5.13244e+00
    5.20944e-02     2.98078e+02     5.59455e-01     2.97164e+02     0.00000e+00    -3.70797e+01     2.12034e+02    -5.05840e+00
