# All units in [AU] if not specified
{"name":"Al", "Z":18, "Zstar":1.0000038146972656, "A":49,  "μ[AU]": -1.606e-01, "T[AU]": 4.410e-02, "rs[AU]": 1.400e+01 }
	 r[AU]  	 n[AU]  	 nf[AU]  	 nb[AU]     n_ion[AU]    (φ_e+φ_ions)[AU]   φtotal[AU]     δVxc/δρ[Au]  
    1.00000e-03     2.30022e+05     0.00000e+00     2.30003e+05     0.00000e+00    -8.10781e+01     1.79188e+04    -4.54438e+01
    1.06135e-03     2.10305e+05     0.00000e+00     2.10288e+05     0.00000e+00    -8.10387e+01     1.68783e+04    -4.41111e+01
    1.12647e-03     1.92275e+05     0.00000e+00     1.92259e+05     0.00000e+00    -8.09913e+01     1.58980e+04    -4.28173e+01
    1.19558e-03     1.75786e+05     0.00000e+00     1.75771e+05     0.00000e+00    -8.09361e+01     1.49743e+04    -4.15612e+01
    1.26894e-03     1.60707e+05    3.25944e-150     1.60694e+05     0.00000e+00    -8.08732e+01     1.41041e+04    -4.03418e+01
    1.34679e-03     1.46918e+05    1.79135e-141     1.46906e+05     0.00000e+00    -8.08026e+01     1.32842e+04    -3.91579e+01
    1.42942e-03     1.34308e+05    3.06169e-133     1.34298e+05     0.00000e+00    -8.07247e+01     1.25117e+04    -3.80086e+01
    1.51712e-03     1.22778e+05    1.74099e-125     1.22768e+05     0.00000e+00    -8.06393e+01     1.17838e+04    -3.68927e+01
    1.61020e-03     1.12234e+05    3.50990e-118     1.12225e+05     0.00000e+00    -8.05467e+01     1.10981e+04    -3.58094e+01
    1.70899e-03     1.02592e+05    2.66364e-111     1.02584e+05     0.00000e+00    -8.04468e+01     1.04520e+04    -3.47576e+01
    1.81384e-03     9.37749e+04    8.05105e-105     9.37678e+04     0.00000e+00    -8.03397e+01     9.84322e+03    -3.37364e+01
    1.92513e-03     8.57128e+04     1.02216e-98     8.57063e+04     0.00000e+00    -8.02254e+01     9.26968e+03    -3.27450e+01
    2.04324e-03     7.83408e+04     5.73116e-93     7.83350e+04     0.00000e+00    -8.01040e+01     8.72931e+03    -3.17823e+01
    2.16860e-03     7.15999e+04     1.48772e-87     7.15947e+04     0.00000e+00    -7.99754e+01     8.22019e+03    -3.08477e+01
    2.30165e-03     6.54362e+04     1.86928e-82     6.54316e+04     0.00000e+00    -7.98398e+01     7.74051e+03    -2.99402e+01
    2.44286e-03     5.98005e+04     1.18550e-77     5.97963e+04     0.00000e+00    -7.96969e+01     7.28858e+03    -2.90591e+01
    2.59274e-03     5.46474e+04     3.94781e-73     5.46437e+04     0.00000e+00    -7.95469e+01     6.86279e+03    -2.82036e+01
    2.75181e-03     4.99358e+04     7.16463e-69     4.99325e+04     0.00000e+00    -7.93897e+01     6.46162e+03    -2.73729e+01
    2.92065e-03     4.56280e+04     7.33902e-65     4.56251e+04     0.00000e+00    -7.92251e+01     6.08367e+03    -2.65663e+01
    3.09984e-03     4.16894e+04     4.38564e-61     4.16868e+04     0.00000e+00    -7.90533e+01     5.72758e+03    -2.57830e+01
    3.29002e-03     3.80885e+04     1.57723e-57     3.80862e+04     0.00000e+00    -7.88741e+01     5.39209e+03    -2.50225e+01
    3.49188e-03     3.47964e+04     3.51522e-54     3.47943e+04     0.00000e+00    -7.86874e+01     5.07601e+03    -2.42839e+01
    3.70611e-03     3.17866e+04     4.99122e-51     3.17848e+04     0.00000e+00    -7.84931e+01     4.77822e+03    -2.35667e+01
    3.93350e-03     2.90351e+04     4.63404e-48     2.90335e+04     0.00000e+00    -7.82912e+01     4.49766e+03    -2.28703e+01
    4.17483e-03     2.65197e+04     2.88312e-45     2.65183e+04     0.00000e+00    -7.80815e+01     4.23335e+03    -2.21940e+01
    4.43097e-03     2.42203e+04     1.23012e-42     2.42191e+04     0.00000e+00    -7.78640e+01     3.98433e+03    -2.15372e+01
    4.70282e-03     2.21184e+04     3.67848e-40     2.21173e+04     0.00000e+00    -7.76385e+01     3.74972e+03    -2.08993e+01
    4.99135e-03     2.01970e+04     7.86925e-38     2.01961e+04     0.00000e+00    -7.74048e+01     3.52870e+03    -2.02798e+01
    5.29759e-03     1.84408e+04     1.22782e-35     1.84401e+04     0.00000e+00    -7.71629e+01     3.32048e+03    -1.96782e+01
    5.62261e-03     1.68356e+04     1.42291e-33     1.68350e+04     0.00000e+00    -7.69127e+01     3.12432e+03    -1.90938e+01
    5.96758e-03     1.53685e+04     1.24599e-31     1.53680e+04     0.00000e+00    -7.66538e+01     2.93952e+03    -1.85263e+01
    6.33371e-03     1.40277e+04     8.37836e-30     1.40273e+04     0.00000e+00    -7.63863e+01     2.76542e+03    -1.79750e+01
    6.72230e-03     1.28023e+04     4.39266e-28     1.28020e+04     0.00000e+00    -7.61099e+01     2.60142e+03    -1.74395e+01
    7.13474e-03     1.16825e+04     1.82158e-26     1.16822e+04     0.00000e+00    -7.58245e+01     2.44691e+03    -1.69194e+01
    7.57248e-03     1.06592e+04     6.05611e-25     1.06590e+04     0.00000e+00    -7.55298e+01     2.30137e+03    -1.64142e+01
    8.03707e-03     9.72421e+03     1.63490e-23     9.72407e+03     0.00000e+00    -7.52258e+01     2.16427e+03    -1.59234e+01
    8.53017e-03     8.86990e+03     3.62701e-22     8.86983e+03     0.00000e+00    -7.49122e+01     2.03512e+03    -1.54466e+01
    9.05353e-03     8.08939e+03     6.68771e-21     8.08936e+03     0.00000e+00    -7.45888e+01     1.91346e+03    -1.49834e+01
    9.60899e-03     7.37634e+03     1.03586e-19     7.37636e+03     0.00000e+00    -7.42554e+01     1.79886e+03    -1.45334e+01
    1.01985e-02     6.72498e+03     2.16316e-02     6.72504e+03     0.00000e+00    -7.39119e+01     1.69092e+03    -1.40962e+01
    1.08242e-02     6.13001e+03     2.09739e-02     6.13011e+03     0.00000e+00    -7.35580e+01     1.58925e+03    -1.36714e+01
    1.14883e-02     5.58661e+03     2.03350e-02     5.58673e+03     0.00000e+00    -7.31935e+01     1.49348e+03    -1.32586e+01
    1.21932e-02     5.09034e+03     1.97141e-02     5.09049e+03     0.00000e+00    -7.28182e+01     1.40329e+03    -1.28576e+01
    1.29413e-02     4.63716e+03     1.91109e-02     4.63733e+03     0.00000e+00    -7.24319e+01     1.31834e+03    -1.24678e+01
    1.37353e-02     4.22337e+03     1.85247e-02     4.22356e+03     0.00000e+00    -7.20343e+01     1.23833e+03    -1.20891e+01
    1.45780e-02     3.84559e+03     1.79551e-02     3.84580e+03     0.00000e+00    -7.16253e+01     1.16299e+03    -1.17210e+01
    1.54724e-02     3.50073e+03     1.74016e-02     3.50096e+03     3.61790e-05    -7.12046e+01     1.09203e+03    -1.13633e+01
    1.64217e-02     3.18596e+03     1.68636e-02     3.18619e+03     3.64276e-05    -7.07720e+01     1.02521e+03    -1.10156e+01
    1.74292e-02     2.89868e+03     1.63408e-02     2.89893e+03     3.66915e-05    -7.03272e+01     9.62295e+02    -1.06777e+01
    1.84985e-02     2.63655e+03     1.58327e-02     2.63680e+03     3.69716e-05    -6.98702e+01     9.03052e+02    -1.03493e+01
    1.96335e-02     2.39738e+03     1.53388e-02     2.39764e+03     3.72689e-05    -6.94005e+01     8.47273e+02    -1.00300e+01
    2.08380e-02     2.17920e+03     1.48587e-02     2.17947e+03     3.75844e-05    -6.89180e+01     7.94758e+02    -9.71959e+00
    2.21165e-02     1.98021e+03     1.43920e-02     1.98048e+03     3.79193e-05    -6.84226e+01     7.45320e+02    -9.41784e+00
    2.34734e-02     1.79875e+03     1.39383e-02     1.79903e+03     3.82748e-05    -6.79139e+01     6.98782e+02    -9.12447e+00
    2.49136e-02     1.63331e+03     1.34973e-02     1.63358e+03     3.86520e-05    -6.73918e+01     6.54976e+02    -8.83924e+00
    2.64421e-02     1.48250e+03     1.30685e-02     1.48278e+03     3.90524e-05    -6.68560e+01     6.13747e+02    -8.56190e+00
    2.80645e-02     1.34507e+03     1.26516e-02     1.34495e+03     3.94773e-05    -6.63064e+01     5.74946e+02    -8.29222e+00
    2.97863e-02     1.21984e+03     1.22462e-02     1.21974e+03     3.99283e-05    -6.57428e+01     5.38433e+02    -8.02997e+00
    3.16138e-02     1.10578e+03     1.18521e-02     1.10568e+03     4.04070e-05    -6.51651e+01     5.04078e+02    -7.77494e+00
    3.35534e-02     1.00190e+03     1.14688e-02     1.00182e+03     4.09151e-05    -6.45729e+01     4.71757e+02    -7.52691e+00
    3.56120e-02     9.07327e+02     1.10961e-02     9.07253e+02     4.14543e-05    -6.39662e+01     4.41353e+02    -7.28568e+00
    3.77969e-02     8.21253e+02     1.07336e-02     8.21187e+02     4.20266e-05    -6.33449e+01     4.12756e+02    -7.05106e+00
    4.01159e-02     7.42938e+02     1.03811e-02     7.42878e+02     4.26340e-05    -6.27088e+01     3.85863e+02    -6.82284e+00
    4.25771e-02     6.71705e+02     1.00383e-02     6.71651e+02     4.32787e-05    -6.20578e+01     3.60576e+02    -6.60085e+00
    4.51894e-02     6.06937e+02     9.70480e-03     6.06889e+02     4.39665e-05    -6.13918e+01     3.36803e+02    -6.38490e+00
    4.79619e-02     5.48071e+02     9.38046e-03     5.48027e+02     4.47439e-05    -6.07108e+01     3.14459e+02    -6.17483e+00
    5.09045e-02     4.94588e+02     9.06500e-03     4.94549e+02     4.55690e-05    -6.00146e+01     2.93460e+02    -5.97046e+00
    5.40276e-02     4.46018e+02     8.75814e-03     4.45983e+02     4.64447e-05    -5.93034e+01     2.73731e+02    -5.77164e+00
    5.73424e-02     4.01928e+02     8.45966e-03     4.01897e+02     4.73742e-05    -5.85769e+01     2.55198e+02    -5.57820e+00
    6.08605e-02     3.61925e+02     8.16932e-03     3.61897e+02     4.83607e-05    -5.78354e+01     2.37794e+02    -5.39000e+00
    6.45945e-02     3.25648e+02     7.88689e-03     3.25623e+02     4.94077e-05    -5.70788e+01     2.21454e+02    -5.20690e+00
    6.85576e-02     2.92767e+02     7.61217e-03     2.92745e+02     5.05190e-05    -5.63073e+01     2.06117e+02    -5.02875e+00
    7.27639e-02     2.62981e+02     7.34494e-03     2.62961e+02     5.16984e-05    -5.55209e+01     1.91726e+02    -4.85542e+00
    7.72281e-02     2.36015e+02     7.08499e-03     2.35998e+02     5.27371e-05    -5.47198e+01     1.78227e+02    -4.68678e+00
    8.19663e-02     2.11618e+02     6.83215e-03     2.11602e+02     5.36126e-05    -5.39042e+01     1.65570e+02    -4.52270e+00
    8.69952e-02     1.89559e+02     6.58622e-03     1.89544e+02     5.45417e-05    -5.30744e+01     1.53705e+02    -4.36307e+00
    9.23327e-02     1.69628e+02     6.34703e-03     1.69615e+02     5.55279e-05    -5.22305e+01     1.42588e+02    -4.20777e+00
    9.79976e-02     1.51633e+02     6.11441e-03     1.51621e+02     5.65746e-05    -5.13730e+01     1.32176e+02    -4.05669e+00
    1.04010e-01     1.35399e+02     5.88818e-03     1.35389e+02     5.76855e-05    -5.05021e+01     1.22430e+02    -3.90972e+00
    1.10391e-01     1.20765e+02     5.66820e-03     1.20756e+02     5.85756e-05    -4.96183e+01     1.13309e+02    -3.76676e+00
    1.17164e-01     1.07586e+02     5.45430e-03     1.07578e+02     5.94639e-05    -4.87221e+01     1.04780e+02    -3.62771e+00
    1.24353e-01     9.57275e+01     5.24636e-03     9.57202e+01     6.04067e-05    -4.78139e+01     9.68071e+01    -3.49248e+00
    1.31982e-01     8.50673e+01     5.04423e-03     8.50608e+01     6.14073e-05    -4.68943e+01     8.93593e+01    -3.36098e+00
    1.40080e-01     7.54942e+01     4.84777e-03     7.54883e+01     6.23069e-05    -4.59638e+01     8.24059e+01    -3.23313e+00
    1.48674e-01     6.69064e+01     4.65686e-03     6.69011e+01     6.31592e-05    -4.50232e+01     7.59185e+01    -3.10883e+00
    1.57796e-01     5.92111e+01     4.47137e-03     5.92063e+01     6.40639e-05    -4.40731e+01     6.98699e+01    -2.98801e+00
    1.67477e-01     5.23235e+01     4.29120e-03     5.23192e+01     6.49738e-05    -4.31143e+01     6.42346e+01    -2.87060e+00
    1.77752e-01     4.61665e+01     4.11622e-03     4.61626e+01     6.57846e-05    -4.21476e+01     5.89885e+01    -2.75652e+00
    1.88658e-01     4.06696e+01     3.94634e-03     4.06660e+01     6.66450e-05    -4.11738e+01     5.41085e+01    -2.64570e+00
    2.00233e-01     3.57687e+01     3.78145e-03     3.57654e+01     6.74810e-05    -4.01938e+01     4.95731e+01    -2.53808e+00
    2.12517e-01     3.14052e+01     3.62146e-03     3.14021e+01     6.82688e-05    -3.92086e+01     4.53618e+01    -2.43359e+00
    2.25556e-01     2.75258e+01     3.46626e-03     2.75230e+01     6.90992e-05    -3.82191e+01     4.14551e+01    -2.33216e+00
    2.39395e-01     2.40823e+01     3.31577e-03     2.40796e+01     6.98441e-05    -3.72264e+01     3.78346e+01    -2.23376e+00
    2.54082e-01     2.10303e+01     3.16991e-03     2.10279e+01     7.06346e-05    -3.62316e+01     3.44830e+01    -2.13830e+00
    2.69671e-01     1.83300e+01     3.02859e-03     1.83277e+01     7.13590e-05    -3.52357e+01     3.13837e+01    -2.04575e+00
    2.86216e-01     1.59449e+01     2.89173e-03     1.59427e+01     7.21122e-05    -3.42399e+01     2.85210e+01    -1.95604e+00
    3.03777e-01     1.38420e+01     2.75925e-03     1.38399e+01     7.28033e-05    -3.32453e+01     2.58802e+01    -1.86913e+00
    3.22414e-01     1.19913e+01     2.63109e-03     1.19894e+01     7.35028e-05    -3.22532e+01     2.34470e+01    -1.78497e+00
    3.42195e-01     1.03658e+01     2.50716e-03     1.03640e+01     7.41906e-05    -3.12647e+01     2.12083e+01    -1.70350e+00
    3.63190e-01     8.94087e+00     2.38740e-03     8.93914e+00     7.48404e-05    -3.02810e+01     1.91513e+01    -1.62469e+00
    3.85473e-01     7.69439e+00     2.27175e-03     7.69274e+00     7.54820e-05    -2.93033e+01     1.72640e+01    -1.54848e+00
    4.09123e-01     6.60634e+00     2.16012e-03     6.60476e+00     7.61099e-05    -2.83329e+01     1.55351e+01    -1.47484e+00
    4.34224e-01     5.65866e+00     2.05247e-03     5.65716e+00     7.67190e-05    -2.73710e+01     1.39537e+01    -1.40371e+00
    4.60865e-01     4.83515e+00     1.94871e-03     4.83370e+00     7.73031e-05    -2.64187e+01     1.25097e+01    -1.33505e+00
    4.89141e-01     4.12120e+00     1.84880e-03     4.11982e+00     7.78711e-05    -2.54773e+01     1.11934e+01    -1.26882e+00
    5.19151e-01     3.50374e+00     1.75266e-03     3.50241e+00     7.84221e-05    -2.45478e+01     9.99561e+00    -1.20497e+00
    5.51003e-01     2.97105e+00     1.66023e-03     2.96977e+00     7.89564e-05    -2.36314e+01     8.90771e+00    -1.14347e+00
    5.84808e-01     2.51266e+00     1.57145e-03     2.51144e+00     7.94700e-05    -2.27292e+01     7.92150e+00    -1.08425e+00
    6.20688e-01     2.11924e+00     1.48625e-03     2.11807e+00     7.99593e-05    -2.18422e+01     7.02925e+00    -1.02729e+00
    6.58769e-01     1.78250e+00     1.40458e-03     1.78137e+00     8.04302e-05    -2.09714e+01     6.22368e+00    -9.72535e-01
    6.99187e-01     1.49504e+00     1.32636e-03     1.49396e+00     8.08883e-05    -2.01177e+01     5.49792e+00    -9.19935e-01
    7.42084e-01     1.25034e+00     1.25152e-03     1.24932e+00     8.13238e-05    -1.92819e+01     4.84551e+00    -8.69445e-01
    7.87614e-01     1.04264e+00     1.18001e-03     1.04166e+00     8.17412e-05    -1.84649e+01     4.26038e+00    -8.21017e-01
    8.35936e-01     8.66859e-01     1.11176e-03     8.65922e-01     8.21378e-05    -1.76673e+01     3.73683e+00    -7.74600e-01
    8.87224e-01     7.18521e-01     1.04669e-03     7.17628e-01     8.25202e-05    -1.68899e+01     3.26952e+00    -7.30141e-01
    9.41658e-01     5.93861e-01     9.84805e-04     5.93010e-01     8.28792e-05    -1.61332e+01     2.85348e+00    -6.88118e-01
    9.99431e-01     4.89343e-01     9.25995e-04     4.88534e-01     8.32194e-05    -1.53976e+01     2.48405e+00    -6.48101e-01
    1.06075e+00     4.01963e-01     8.70172e-04     4.01194e-01     8.35414e-05    -1.46837e+01     2.15691e+00    -6.09920e-01
    1.12583e+00     3.29141e-01     8.17266e-04     3.28411e-01     8.38469e-05    -1.39916e+01     1.86802e+00    -5.73524e-01
    1.19490e+00     2.68644e-01     7.67202e-04     2.67952e-01     8.41297e-05    -1.33217e+01     1.61367e+00    -5.38859e-01
    1.26821e+00     2.18549e-01     7.19906e-04     2.17894e-01     8.43985e-05    -1.26742e+01     1.39041e+00    -5.05873e-01
    1.34602e+00     1.77201e-01     6.75303e-04     1.76581e-01     8.46481e-05    -1.20491e+01     1.19506e+00    -4.74508e-01
    1.42861e+00     1.43185e-01     6.33313e-04     1.42598e-01     8.48824e-05    -1.14464e+01     1.02468e+00    -4.44708e-01
    1.51626e+00     1.15291e-01     5.93858e-04     1.14736e-01     8.50994e-05    -1.08662e+01     8.76589e-01    -4.16415e-01
    1.60928e+00     9.24939e-02     5.56855e-04     9.19684e-02     8.52988e-05    -1.03082e+01     7.48332e-01    -3.89568e-01
    1.70802e+00     7.39222e-02     5.22217e-04     7.34251e-02     8.54822e-05    -9.77230e+00     6.37658e-01    -3.64106e-01
    1.81281e+00     5.88423e-02     4.89855e-04     5.83718e-02     8.56525e-05    -9.25824e+00     5.42522e-01    -3.39964e-01
    1.92403e+00     4.66369e-02     4.59676e-04     4.61914e-02     8.58055e-05    -8.76572e+00     4.61065e-01    -3.17074e-01
    2.04208e+00     3.67893e-02     4.31577e-04     3.63672e-02     8.59455e-05    -8.29438e+00     3.91603e-01    -2.95364e-01
    2.16737e+00     2.88685e-02     4.05452e-04     2.84682e-02     8.60724e-05    -7.84383e+00     3.32615e-01    -2.74760e-01
    2.30034e+00     2.25168e-02     3.81183e-04     2.21369e-02     8.61868e-05    -7.41363e+00     2.82728e-01    -2.55177e-01
    2.44147e+00     1.74386e-02     3.58638e-04     1.70779e-02     8.62894e-05    -7.00332e+00     2.40708e-01    -2.36529e-01
    2.59127e+00     1.33915e-02     3.37675e-04     1.30490e-02     8.63809e-05    -6.61240e+00     2.05444e-01    -2.18720e-01
    2.75025e+00     1.01782e-02     3.18134e-04     9.85330e-03     8.64630e-05    -6.24035e+00     1.75942e-01    -2.01656e-01
    2.91899e+00     7.64004e-03     2.99847e-04     7.33250e-03     8.65365e-05    -5.88664e+00     1.51311e-01    -1.85246e-01
    3.09807e+00     5.65109e-03     2.82637e-04     5.36099e-03     8.66029e-05    -5.55073e+00     1.30758e-01    -1.69428e-01
    3.28815e+00     4.11272e-03     2.66349e-04     3.84026e-03     8.66632e-05    -5.23205e+00     1.13578e-01    -1.54196e-01
    3.48989e+00     2.94764e-03     2.50879e-04     2.69270e-03     8.67181e-05    -4.93003e+00     9.91540e-02    -1.39654e-01
    3.70401e+00     2.09202e-03     2.36221e-04     1.85373e-03     8.67682e-05    -4.64408e+00     8.69564e-02    -1.26048e-01
    3.93126e+00     1.48635e-03     2.22474e-04     1.26312e-03     8.68122e-05    -4.37357e+00     7.65443e-02    -1.13713e-01
    4.17245e+00     1.07104e-03     2.09760e-04     8.61138e-04     8.68506e-05    -4.11787e+00     6.75654e-02    -1.02919e-01
    4.42845e+00     7.90716e-04     1.98139e-04     5.92641e-04     8.68829e-05    -3.87631e+00     5.97474e-02    -9.37292e-02
    4.70015e+00     6.00959e-04     1.87574e-04     4.13527e-04     8.69093e-05    -3.64821e+00     5.28842e-02    -8.60232e-02
    4.98852e+00     4.70405e-04     1.77971e-04     2.92650e-04     8.69308e-05    -3.43290e+00     4.68197e-02    -7.95873e-02
    5.29458e+00     3.78505e-04     1.69214e-04     2.09600e-04     8.69484e-05    -3.22970e+00     4.14342e-02    -7.41975e-02
    5.61942e+00     3.12645e-04     1.61223e-04     1.51609e-04     8.69625e-05    -3.03797e+00     3.66338e-02    -6.96901e-02
    5.96419e+00     2.64278e-04     1.53899e-04     1.10342e-04     8.69740e-05    -2.85710e+00     3.23437e-02    -6.58958e-02
    6.33011e+00     2.28505e-04     1.47298e-04     8.10359e-05     8.69827e-05    -2.68648e+00     2.85032e-02    -6.28219e-02
    6.71848e+00     2.01819e-04     1.41468e-04     6.02877e-05     8.69884e-05    -2.52554e+00     2.50629e-02    -6.04542e-02
    7.13068e+00     1.80859e-04     1.36107e-04     4.47860e-05     8.69928e-05    -2.37375e+00     2.19822e-02    -5.84458e-02
    7.56817e+00     1.64141e-04     1.31166e-04     3.31012e-05     8.69963e-05    -2.23058e+00     1.92261e-02    -5.67303e-02
    8.03250e+00     1.50655e-04     1.26609e-04     2.42491e-05     8.69990e-05    -2.09556e+00     1.67641e-02    -5.52597e-02
    8.52532e+00     1.39659e-04     1.22403e-04     1.75260e-05     8.70010e-05    -1.96822e+00     1.45688e-02    -5.39942e-02
    9.04838e+00     1.30612e-04     1.18523e-04     1.24224e-05     8.70026e-05    -1.84812e+00     1.26157e-02    -5.29021e-02
