# All units in [AU] if not specified
{"name":"Al", "Z":13, "Zstar":1.661865234375, "A":28,  "μ[AU]": -3.742e-01, "T[AU]": 1.838e-01, "rs[AU]": 5.441e+00 }
	 r[AU]  	 n[AU]  	 nf[AU]  	 nb[AU]     n_ion[AU]    (φ_e+φ_ions)[AU]   φtotal[AU]     δVxc/δρ[Au]  
    1.00000e-03     1.41476e+05     7.14368e-32     1.41477e+05     0.00000e+00    -5.26493e+01     1.29471e+04    -3.86703e+01
    1.05632e-03     1.30284e+05     3.97634e-30     1.30285e+05     0.00000e+00    -5.26271e+01     1.22540e+04    -3.76266e+01
    1.11582e-03     1.19975e+05     1.77875e-28     1.19977e+05     0.00000e+00    -5.26007e+01     1.15978e+04    -3.66111e+01
    1.17867e-03     1.10481e+05     6.46955e-27     1.10482e+05     0.00000e+00    -5.25702e+01     1.09766e+04    -3.56228e+01
    1.24506e-03     1.01736e+05     1.93442e-25     1.01738e+05     0.00000e+00    -5.25358e+01     1.03885e+04    -3.46611e+01
    1.31519e-03     9.36813e+04     4.80487e-24     9.36832e+04     0.00000e+00    -5.24973e+01     9.83179e+03    -3.37253e+01
    1.38926e-03     8.62629e+04     1.00128e-22     8.62648e+04     0.00000e+00    -5.24550e+01     9.30477e+03    -3.28146e+01
    1.46751e-03     7.94303e+04     1.76700e-21     7.94322e+04     0.00000e+00    -5.24088e+01     8.80587e+03    -3.19283e+01
    1.55017e-03     7.31374e+04     2.66423e-20     7.31393e+04     0.00000e+00    -5.23587e+01     8.33357e+03    -3.10659e+01
    1.63749e-03     6.73414e+04     3.46101e-19     6.73433e+04     0.00000e+00    -5.23049e+01     7.88646e+03    -3.02266e+01
    1.72972e-03     6.20033e+04     3.90461e-18     6.20052e+04     0.00000e+00    -5.22474e+01     7.46319e+03    -2.94099e+01
    1.82714e-03     5.70869e+04     5.26137e-01     5.70888e+04     0.00000e+00    -5.21860e+01     7.06251e+03    -2.86150e+01
    1.93006e-03     5.25589e+04     5.11843e-01     5.25608e+04     0.00000e+00    -5.21210e+01     6.68319e+03    -2.78415e+01
    2.03877e-03     4.83886e+04     4.97932e-01     4.83906e+04     0.00000e+00    -5.20523e+01     6.32411e+03    -2.70887e+01
    2.15360e-03     4.45480e+04     4.84394e-01     4.45499e+04     0.00000e+00    -5.19798e+01     5.98419e+03    -2.63561e+01
    2.27490e-03     4.10108e+04     4.71219e-01     4.10127e+04     0.00000e+00    -5.19036e+01     5.66239e+03    -2.56431e+01
    2.40303e-03     3.77533e+04     4.58398e-01     3.77552e+04     0.00000e+00    -5.18237e+01     5.35776e+03    -2.49493e+01
    2.53839e-03     3.47532e+04     4.45920e-01     3.47551e+04     0.00000e+00    -5.17400e+01     5.06939e+03    -2.42739e+01
    2.68136e-03     3.19904e+04     4.33777e-01     3.19923e+04     0.00000e+00    -5.16526e+01     4.79640e+03    -2.36167e+01
    2.83239e-03     2.94460e+04     4.21959e-01     2.94479e+04     0.00000e+00    -5.15614e+01     4.53797e+03    -2.29770e+01
    2.99192e-03     2.71029e+04     4.10457e-01     2.71047e+04     0.00000e+00    -5.14664e+01     4.29333e+03    -2.23545e+01
    3.16044e-03     2.49451e+04     3.99263e-01     2.49469e+04     0.00000e+00    -5.13676e+01     4.06175e+03    -2.17485e+01
    3.33845e-03     2.29581e+04     3.88368e-01     2.29599e+04     0.00000e+00    -5.12649e+01     3.84252e+03    -2.11588e+01
    3.52649e-03     2.11283e+04     3.77765e-01     2.11300e+04     0.00000e+00    -5.11583e+01     3.63499e+03    -2.05848e+01
    3.72512e-03     1.94433e+04     3.67444e-01     1.94450e+04     0.00000e+00    -5.10477e+01     3.43854e+03    -2.00261e+01
    3.93493e-03     1.78918e+04     3.57399e-01     1.78934e+04     0.00000e+00    -5.09332e+01     3.25257e+03    -1.94822e+01
    4.15657e-03     1.64631e+04     3.47623e-01     1.64647e+04     0.00000e+00    -5.08146e+01     3.07653e+03    -1.89529e+01
    4.39069e-03     1.51475e+04     3.38106e-01     1.51492e+04     0.00000e+00    -5.06918e+01     2.90988e+03    -1.84377e+01
    4.63799e-03     1.39362e+04     3.28844e-01     1.39378e+04     0.00000e+00    -5.05650e+01     2.75213e+03    -1.79361e+01
    4.89923e-03     1.28209e+04     3.19828e-01     1.28225e+04     0.00000e+00    -5.04338e+01     2.60281e+03    -1.74479e+01
    5.17517e-03     1.17941e+04     3.11052e-01     1.17956e+04     0.00000e+00    -5.02984e+01     2.46146e+03    -1.69727e+01
    5.46667e-03     1.08486e+04     3.02510e-01     1.08481e+04     0.00000e+00    -5.01586e+01     2.32765e+03    -1.65101e+01
    5.77458e-03     9.97819e+03     2.94194e-01     9.97773e+03     0.00000e+00    -5.00144e+01     2.20099e+03    -1.60597e+01
    6.09983e-03     9.17683e+03     2.86099e-01     9.17640e+03     0.00000e+00    -4.98657e+01     2.08110e+03    -1.56213e+01
    6.44340e-03     8.43910e+03     2.78219e-01     8.43869e+03     0.00000e+00    -4.97124e+01     1.96762e+03    -1.51945e+01
    6.80632e-03     7.75997e+03     2.70548e-01     7.75957e+03     0.00000e+00    -4.95544e+01     1.86020e+03    -1.47789e+01
    7.18969e-03     7.13480e+03     2.63080e-01     7.13442e+03     0.00000e+00    -4.93916e+01     1.75851e+03    -1.43744e+01
    7.59465e-03     6.55933e+03     2.55810e-01     6.55897e+03     0.00000e+00    -4.92241e+01     1.66227e+03    -1.39805e+01
    8.02241e-03     6.02963e+03     2.48731e-01     6.02929e+03     0.00000e+00    -4.90515e+01     1.57117e+03    -1.35970e+01
    8.47427e-03     5.54209e+03     2.41840e-01     5.54176e+03     0.00000e+00    -4.88740e+01     1.48494e+03    -1.32236e+01
    8.95159e-03     5.09337e+03     2.35131e-01     5.09305e+03     0.00000e+00    -4.86913e+01     1.40333e+03    -1.28601e+01
    9.45578e-03     4.68040e+03     2.28598e-01     4.68009e+03     0.00000e+00    -4.85034e+01     1.32608e+03    -1.25061e+01
    9.98838e-03     4.30035e+03     2.22237e-01     4.30006e+03     0.00000e+00    -4.83101e+01     1.25296e+03    -1.21614e+01
    1.05510e-02     3.95062e+03     2.16044e-01     3.95034e+03     0.00000e+00    -4.81114e+01     1.18376e+03    -1.18257e+01
    1.11453e-02     3.62881e+03     2.10013e-01     3.62854e+03     0.00000e+00    -4.79072e+01     1.11827e+03    -1.14988e+01
    1.17730e-02     3.33271e+03     2.04140e-01     3.33246e+03     0.00000e+00    -4.76974e+01     1.05628e+03    -1.11805e+01
    1.24361e-02     3.06029e+03     1.98422e-01     3.06004e+03     0.00000e+00    -4.74818e+01     9.97621e+02    -1.08704e+01
    1.31366e-02     2.80967e+03     1.92853e-01     2.80943e+03     0.00000e+00    -4.72604e+01     9.42103e+02    -1.05685e+01
    1.38765e-02     2.57912e+03     1.87429e-01     2.57889e+03     0.00000e+00    -4.70330e+01     8.89564e+02    -1.02744e+01
    1.46581e-02     2.36705e+03     1.82147e-01     2.36684e+03     0.00000e+00    -4.67995e+01     8.39844e+02    -9.98800e+00
    1.54837e-02     2.17201e+03     1.77003e-01     2.17180e+03     0.00000e+00    -4.65598e+01     7.92793e+02    -9.70901e+00
    1.63558e-02     1.99263e+03     1.71992e-01     1.99243e+03     0.00000e+00    -4.63138e+01     7.48271e+02    -9.43725e+00
    1.72771e-02     1.82768e+03     1.67112e-01     1.82749e+03     0.00000e+00    -4.60613e+01     7.06142e+02    -9.17253e+00
    1.82502e-02     1.67601e+03     1.62358e-01     1.67583e+03     0.00000e+00    -4.58024e+01     6.66280e+02    -8.91464e+00
    1.92781e-02     1.53657e+03     1.57728e-01     1.53639e+03     0.00000e+00    -4.55367e+01     6.28563e+02    -8.66341e+00
    2.03640e-02     1.40839e+03     1.53217e-01     1.40822e+03     0.00000e+00    -4.52643e+01     5.92879e+02    -8.41866e+00
    2.15110e-02     1.29057e+03     1.48823e-01     1.29041e+03     0.00000e+00    -4.49850e+01     5.59119e+02    -8.18019e+00
    2.27226e-02     1.18230e+03     1.44542e-01     1.18213e+03     0.00000e+00    -4.46987e+01     5.27181e+02    -7.94785e+00
    2.40024e-02     1.08280e+03     1.40371e-01     1.08264e+03     0.00000e+00    -4.44053e+01     4.96968e+02    -7.72146e+00
    2.53544e-02     9.91383e+02     1.36308e-01     9.91233e+02     0.00000e+00    -4.41047e+01     4.68389e+02    -7.50086e+00
    2.67824e-02     9.07407e+02     1.32349e-01     9.07262e+02     0.00000e+00    -4.37967e+01     4.41357e+02    -7.28589e+00
    2.82910e-02     8.30277e+02     1.28491e-01     8.30138e+02     0.00000e+00    -4.34813e+01     4.15791e+02    -7.07640e+00
    2.98844e-02     7.59448e+02     1.24732e-01     7.59314e+02     0.00000e+00    -4.31584e+01     3.91612e+02    -6.87224e+00
    3.15677e-02     6.94418e+02     1.21069e-01     6.94287e+02     0.00000e+00    -4.28278e+01     3.68747e+02    -6.67327e+00
    3.33457e-02     6.34722e+02     1.17500e-01     6.34596e+02     0.00000e+00    -4.24894e+01     3.47127e+02    -6.47934e+00
    3.52239e-02     5.79935e+02     1.14021e-01     5.79814e+02     0.00000e+00    -4.21433e+01     3.26685e+02    -6.29031e+00
    3.72079e-02     5.29665e+02     1.10631e-01     5.29548e+02     0.00000e+00    -4.17892e+01     3.07360e+02    -6.10606e+00
    3.93036e-02     4.83549e+02     1.07327e-01     4.83436e+02     0.00000e+00    -4.14271e+01     2.89092e+02    -5.92646e+00
    4.15174e-02     4.41255e+02     1.04107e-01     4.41146e+02     0.00000e+00    -4.10569e+01     2.71826e+02    -5.75138e+00
    4.38559e-02     4.02477e+02     1.00968e-01     4.02371e+02     0.00000e+00    -4.06786e+01     2.55508e+02    -5.58069e+00
    4.63260e-02     3.66931e+02     9.79090e-02     3.66828e+02     0.00000e+00    -4.02921e+01     2.40089e+02    -5.41429e+00
    4.89353e-02     3.34357e+02     9.49270e-02     3.34259e+02     0.00000e+00    -3.98974e+01     2.25520e+02    -5.25206e+00
    5.16916e-02     3.04518e+02     9.20202e-02     3.04422e+02     0.00000e+00    -3.94943e+01     2.11758e+02    -5.09388e+00
    5.46031e-02     2.77191e+02     8.91868e-02     2.77098e+02     0.00000e+00    -3.90829e+01     1.98760e+02    -4.93966e+00
    5.76786e-02     2.52173e+02     8.64247e-02     2.52084e+02     0.00000e+00    -3.86632e+01     1.86485e+02    -4.78928e+00
    6.09274e-02     2.29279e+02     8.37321e-02     2.29193e+02     0.00000e+00    -3.82350e+01     1.74895e+02    -4.64266e+00
    6.43591e-02     2.08336e+02     8.11073e-02     2.08252e+02     0.00000e+00    -3.77986e+01     1.63954e+02    -4.49968e+00
    6.79841e-02     1.89184e+02     7.85485e-02     1.89104e+02     0.00000e+00    -3.73537e+01     1.53628e+02    -4.36026e+00
    7.18133e-02     1.71679e+02     7.60540e-02     1.71602e+02     0.00000e+00    -3.69006e+01     1.43885e+02    -4.22430e+00
    7.58582e-02     1.55686e+02     7.36223e-02     1.55611e+02     0.00000e+00    -3.64391e+01     1.34694e+02    -4.09172e+00
    8.01309e-02     1.41081e+02     7.12518e-02     1.41009e+02     0.00000e+00    -3.59694e+01     1.26026e+02    -3.96244e+00
    8.46443e-02     1.27751e+02     6.89409e-02     1.27681e+02     0.00000e+00    -3.54916e+01     1.17853e+02    -3.83637e+00
    8.94118e-02     1.15590e+02     6.66883e-02     1.15523e+02     0.00000e+00    -3.50057e+01     1.10150e+02    -3.71343e+00
    9.44480e-02     1.04503e+02     6.44926e-02     1.04437e+02     0.00000e+00    -3.45119e+01     1.02891e+02    -3.59355e+00
    9.97677e-02     9.43990e+01     6.23523e-02     9.43360e+01     0.00000e+00    -3.40102e+01     9.60535e+01    -3.47665e+00
    1.05387e-01     8.51980e+01     6.02662e-02     8.51372e+01     0.00000e+00    -3.35009e+01     8.96149e+01    -3.36266e+00
    1.11323e-01     7.68242e+01     5.82330e-02     7.67655e+01     0.00000e+00    -3.29840e+01     8.35543e+01    -3.25152e+00
    1.17593e-01     6.92084e+01     5.62516e-02     6.91517e+01     0.00000e+00    -3.24598e+01     7.78518e+01    -3.14315e+00
    1.24217e-01     6.22868e+01     5.43208e-02     6.22322e+01     0.00000e+00    -3.19285e+01     7.24883e+01    -3.03750e+00
    1.31213e-01     5.60009e+01     5.24394e-02     5.59482e+01     0.00000e+00    -3.13904e+01     6.74461e+01    -2.93449e+00
    1.38604e-01     5.02967e+01     5.06064e-02     5.02459e+01     0.00000e+00    -3.08456e+01     6.27081e+01    -2.83409e+00
    1.46411e-01     4.51246e+01     4.88208e-02     4.50756e+01     0.00000e+00    -3.02944e+01     5.82580e+01    -2.73622e+00
    1.54657e-01     4.04389e+01     4.70816e-02     4.03917e+01     0.00000e+00    -2.97372e+01     5.40807e+01    -2.64083e+00
    1.63368e-01     3.61977e+01     4.53879e-02     3.61522e+01     0.00000e+00    -2.91743e+01     5.01616e+01    -2.54788e+00
    1.72570e-01     3.23624e+01     4.37386e-02     3.23186e+01     0.00000e+00    -2.86060e+01     4.64868e+01    -2.45730e+00
    1.82290e-01     2.88975e+01     4.21331e-02     2.88554e+01     0.00000e+00    -2.80328e+01     4.30433e+01    -2.36906e+00
    1.92557e-01     2.57705e+01     4.05704e-02     2.57299e+01     0.00000e+00    -2.74549e+01     3.98185e+01    -2.28310e+00
    2.03403e-01     2.29514e+01     3.90497e-02     2.29124e+01     0.00000e+00    -2.68729e+01     3.68007e+01    -2.19939e+00
    2.14860e-01     2.04128e+01     3.75704e-02     2.03752e+01     0.00000e+00    -2.62871e+01     3.39786e+01    -2.11787e+00
    2.26962e-01     1.81292e+01     3.61315e-02     1.80931e+01     0.00000e+00    -2.56980e+01     3.13414e+01    -2.03851e+00
    2.39745e-01     1.60777e+01     3.47325e-02     1.60430e+01     0.00000e+00    -2.51062e+01     2.88791e+01    -1.96126e+00
    2.53249e-01     1.42369e+01     3.33727e-02     1.42035e+01     0.00000e+00    -2.45121e+01     2.65819e+01    -1.88610e+00
    2.67513e-01     1.25873e+01     3.20514e-02     1.25553e+01     0.00000e+00    -2.39162e+01     2.44406e+01    -1.81297e+00
    2.82581e-01     1.11111e+01     3.07680e-02     1.10804e+01     0.00000e+00    -2.33192e+01     2.24464e+01    -1.74185e+00
    2.98497e-01     9.79192e+00     2.95219e-02     9.76241e+00     0.00000e+00    -2.27215e+01     2.05911e+01    -1.67269e+00
    3.15310e-01     8.61475e+00     2.83125e-02     8.58646e+00     0.00000e+00    -2.21238e+01     1.88666e+01    -1.60548e+00
    3.33070e-01     7.56591e+00     2.71393e-02     7.53879e+00     0.00000e+00    -2.15266e+01     1.72654e+01    -1.54017e+00
    3.51830e-01     6.63286e+00     2.60017e-02     6.60688e+00     0.00000e+00    -2.09305e+01     1.57803e+01    -1.47673e+00
    3.71647e-01     5.80417e+00     2.48992e-02     5.77929e+00     0.00000e+00    -2.03362e+01     1.44044e+01    -1.41512e+00
    3.92579e-01     5.06939e+00     2.38313e-02     5.04558e+00     0.00000e+00    -1.97442e+01     1.31312e+01    -1.35533e+00
    4.14691e-01     4.41902e+00     2.27976e-02     4.39624e+00     0.00000e+00    -1.91552e+01     1.19544e+01    -1.29732e+00
    4.38049e-01     3.84438e+00     2.17974e-02     3.82259e+00     0.00000e+00    -1.85699e+01     1.08682e+01    -1.24105e+00
    4.62722e-01     3.33758e+00     2.08304e-02     3.31676e+00     0.00000e+00    -1.79888e+01     9.86692e+00    -1.18651e+00
    4.88785e-01     2.89146e+00     1.98962e-02     2.87158e+00     0.00000e+00    -1.74126e+01     8.94511e+00    -1.13365e+00
    5.16315e-01     2.49952e+00     1.89941e-02     2.48054e+00     0.00000e+00    -1.68418e+01     8.09770e+00    -1.08245e+00
    5.45397e-01     2.15588e+00     1.81238e-02     2.13777e+00     0.00000e+00    -1.62771e+01     7.31983e+00    -1.03288e+00
    5.76116e-01     1.85519e+00     1.72847e-02     1.83792e+00     0.00000e+00    -1.57191e+01     6.60686e+00    -9.84913e-01
    6.08566e-01     1.59265e+00     1.64765e-02     1.57618e+00     0.00000e+00    -1.51684e+01     5.95440e+00    -9.38510e-01
    6.42843e-01     1.36391e+00     1.56987e-02     1.34822e+00     0.00000e+00    -1.46255e+01     5.35827e+00    -8.93641e-01
    6.79051e-01     1.16506e+00     1.49507e-02     1.15011e+00     0.00000e+00    -1.40909e+01     4.81450e+00    -8.50275e-01
    7.17299e-01     9.92581e-01     1.42321e-02     9.78354e-01     0.00000e+00    -1.35653e+01     4.31933e+00    -8.08377e-01
    7.57701e-01     8.43327e-01     1.35424e-02     8.29788e-01     0.00000e+00    -1.30491e+01     3.86920e+00    -7.67912e-01
    8.00378e-01     7.14473e-01     1.28809e-02     7.01595e-01     0.00000e+00    -1.25427e+01     3.46073e+00    -7.28843e-01
    8.45459e-01     6.03624e-01     1.22480e-02     5.91379e-01     0.00000e+00    -1.20466e+01     3.09073e+00    -6.91605e-01
    8.93079e-01     5.08427e-01     1.16425e-02     4.96787e-01     0.00000e+00    -1.15613e+01     2.75619e+00    -6.55812e-01
    9.43382e-01     4.26859e-01     1.10637e-02     4.15797e-01     0.00000e+00    -1.10870e+01     2.45425e+00    -6.21328e-01
    9.96518e-01     3.57149e-01     1.05109e-02     3.46639e-01     0.00000e+00    -1.06243e+01     2.18226e+00    -5.88113e-01
    1.05265e+00     2.97733e-01     9.98357e-03     2.87750e-01     0.00000e+00    -1.01732e+01     1.93767e+00    -5.56124e-01
    1.11194e+00     2.47229e-01     9.48082e-03     2.37749e-01     0.00000e+00    -9.73427e+00     1.71813e+00    -5.25319e-01
    1.17457e+00     2.04425e-01     9.00191e-03     1.95423e-01     0.00000e+00    -9.30759e+00     1.52141e+00    -4.95652e-01
    1.24072e+00     1.68256e-01     8.54596e-03     1.59710e-01     0.00000e+00    -8.89341e+00     1.34543e+00    -4.67079e-01
    1.31061e+00     1.37796e-01     8.11205e-03     1.29684e-01     0.00000e+00    -8.49192e+00     1.18824e+00    -4.39556e-01
    1.38443e+00     1.12241e-01     7.69919e-03     1.04542e-01     0.00000e+00    -8.10324e+00     1.04801e+00    -4.13047e-01
    1.46240e+00     9.08961e-02     7.30634e-03     8.35897e-02     0.00000e+00    -7.72750e+00     9.23058e-01    -3.87524e-01
    1.54477e+00     7.31626e-02     6.93242e-03     6.62302e-02     0.00000e+00    -7.36475e+00     8.11806e-01    -3.62976e-01
    1.63178e+00     5.85273e-02     6.57638e-03     5.19509e-02     0.00000e+00    -7.01503e+00     7.12799e-01    -3.39416e-01
    1.72369e+00     4.65476e-02     6.23721e-03     4.03104e-02     0.00000e+00    -6.67833e+00     6.24699e-01    -3.16892e-01
    1.82078e+00     3.68387e-02     5.91402e-03     3.09246e-02     0.00000e+00    -6.35460e+00     5.46281e-01    -2.95483e-01
    1.92334e+00     2.90602e-02     5.60609e-03     2.34541e-02     0.00000e+00    -6.04374e+00     4.76439e-01    -2.75302e-01
    2.03167e+00     2.29057e-02     5.31288e-03     1.75927e-02     0.00000e+00    -5.74559e+00     4.14181e-01    -2.56479e-01
    2.14610e+00     1.80959e-02     5.03403e-03     1.30618e-02     0.00000e+00    -5.45995e+00     3.58629e-01    -2.39140e-01
    2.26698e+00     1.43778e-02     4.76925e-03     9.60844e-03     0.00000e+00    -5.18657e+00     3.09018e-01    -2.23374e-01
    2.39467e+00     1.15267e-02     4.51832e-03     7.00836e-03     0.00000e+00    -4.92513e+00     2.64686e-01    -2.09221e-01
    2.52955e+00     9.35056e-03     4.28095e-03     5.06956e-03     0.00000e+00    -4.67528e+00     2.25070e-01    -1.96658e-01
    2.67202e+00     7.69108e-03     4.05685e-03     3.63418e-03     0.00000e+00    -4.43662e+00     1.89690e-01    -1.85612e-01
    2.82252e+00     6.42293e-03     3.84570e-03     2.57719e-03     0.00000e+00    -4.20875e+00     1.58144e-01    -1.75973e-01
    2.98150e+00     5.44971e-03     3.64721e-03     1.80246e-03     0.00000e+00    -3.99121e+00     1.30091e-01    -1.67616e-01
    3.14943e+00     4.69890e-03     3.46123e-03     1.23764e-03     0.00000e+00    -3.78356e+00     1.05250e-01    -1.60413e-01
    3.32683e+00     4.11674e-03     3.28771e-03     8.29003e-04     0.00000e+00    -3.58533e+00     8.33836e-02    -1.54241e-01
    3.51421e+00     3.66368e-03     3.12686e-03     5.36796e-04     0.00000e+00    -3.39606e+00     6.42985e-02    -1.48991e-01
    3.71215e+00     3.31076e-03     2.97912e-03     3.31618e-04     0.00000e+00    -3.21527e+00     4.78373e-02    -1.44570e-01
    3.92123e+00     3.03686e-03     2.84528e-03     1.91560e-04     0.00000e+00    -3.04249e+00     3.38765e-02    -1.40900e-01
    4.14210e+00     2.82670e-03     2.72659e-03     1.00093e-04     0.00000e+00    -2.87727e+00     2.23250e-02    -1.37920e-01
    4.37540e+00     2.66933e-03     2.62482e-03     4.44966e-05     0.00000e+00    -2.71912e+00     1.31228e-02    -1.35583e-01
