# All units in [AU] if not specified
{"name":"Al", "Z":13, "Zstar":4.660645207747223, "A":28,  "μ[AU]": 2.634e-01, "T[AU]": 3.675e-02, "rs[AU]": 3.000e+00 }
	 r[AU]  	 n[AU]  	 nf[AU]  	 nb[AU]     n_ion[AU]    (φ_e+φ_ions)[AU]   φtotal[AU]     δVxc/δρ[Au]  
   2.000000e-02    1.455539e+03    2.357425e+00    1.453501e+03    0.000000e+00   -4.268782e+01    6.068788e+02   -8.510348e+00
   2.014695e-02    1.438686e+03    2.348286e+00    1.436653e+03    0.000000e+00   -4.267584e+01    6.021498e+02   -8.477802e+00
   2.029498e-02    1.422022e+03    2.339179e+00    1.419994e+03    0.000000e+00   -4.266356e+01    5.974557e+02   -8.445371e+00
   2.044409e-02    1.405545e+03    2.330104e+00    1.403522e+03    0.000000e+00   -4.265098e+01    5.927962e+02   -8.413053e+00
   2.059430e-02    1.389252e+03    2.321060e+00    1.387234e+03    0.000000e+00   -4.263809e+01    5.881711e+02   -8.380847e+00
   2.074562e-02    1.373141e+03    2.312048e+00    1.371129e+03    0.000000e+00   -4.262491e+01    5.835802e+02   -8.348752e+00
   2.089804e-02    1.357211e+03    2.303067e+00    1.355204e+03    0.000000e+00   -4.261141e+01    5.790231e+02   -8.316768e+00
   2.105159e-02    1.341459e+03    2.294118e+00    1.339458e+03    0.000000e+00   -4.259762e+01    5.744996e+02   -8.284895e+00
   2.120626e-02    1.325885e+03    2.285199e+00    1.323888e+03    0.000000e+00   -4.258353e+01    5.700096e+02   -8.253135e+00
   2.136207e-02    1.310485e+03    2.276312e+00    1.308493e+03    0.000000e+00   -4.256915e+01    5.655526e+02   -8.221484e+00
   2.151903e-02    1.295257e+03    2.267456e+00    1.293271e+03    0.000000e+00   -4.255446e+01    5.611286e+02   -8.189943e+00
   2.167714e-02    1.280200e+03    2.258630e+00    1.278220e+03    0.000000e+00   -4.253948e+01    5.567373e+02   -8.158510e+00
   2.183641e-02    1.265312e+03    2.249835e+00    1.263337e+03    0.000000e+00   -4.252420e+01    5.523784e+02   -8.127186e+00
   2.199685e-02    1.250592e+03    2.241071e+00    1.248622e+03    0.000000e+00   -4.250863e+01    5.480517e+02   -8.095971e+00
   2.215847e-02    1.236037e+03    2.232337e+00    1.234072e+03    0.000000e+00   -4.249277e+01    5.437570e+02   -8.064866e+00
   2.232128e-02    1.221645e+03    2.223634e+00    1.219685e+03    0.000000e+00   -4.247661e+01    5.394940e+02   -8.033867e+00
   2.248528e-02    1.207415e+03    2.214961e+00    1.205460e+03    0.000000e+00   -4.246016e+01    5.352625e+02   -8.002976e+00
   2.265049e-02    1.193344e+03    2.206318e+00    1.191395e+03    0.000000e+00   -4.244342e+01    5.310623e+02   -7.972191e+00
   2.281691e-02    1.179431e+03    2.197705e+00    1.177488e+03    0.000000e+00   -4.242639e+01    5.268931e+02   -7.941512e+00
   2.298456e-02    1.165675e+03    2.189122e+00    1.163737e+03    0.000000e+00   -4.240907e+01    5.227547e+02   -7.910942e+00
   2.315343e-02    1.152074e+03    2.180569e+00    1.150141e+03    0.000000e+00   -4.239147e+01    5.186470e+02   -7.880476e+00
   2.332355e-02    1.138625e+03    2.172045e+00    1.136698e+03    0.000000e+00   -4.237357e+01    5.145696e+02   -7.850116e+00
   2.349492e-02    1.125328e+03    2.163551e+00    1.123406e+03    0.000000e+00   -4.235540e+01    5.105224e+02   -7.819861e+00
   2.366755e-02    1.112180e+03    2.155086e+00    1.110263e+03    0.000000e+00   -4.233693e+01    5.065051e+02   -7.789709e+00
   2.384144e-02    1.099180e+03    2.146651e+00    1.097269e+03    0.000000e+00   -4.231818e+01    5.025176e+02   -7.759662e+00
   2.401661e-02    1.086327e+03    2.138245e+00    1.084421e+03    0.000000e+00   -4.229915e+01    4.985595e+02   -7.729720e+00
   2.419307e-02    1.073618e+03    2.129869e+00    1.071717e+03    0.000000e+00   -4.227984e+01    4.946307e+02   -7.699882e+00
   2.437083e-02    1.061052e+03    2.121521e+00    1.059157e+03    0.000000e+00   -4.226024e+01    4.907310e+02   -7.670146e+00
   2.454989e-02    1.048628e+03    2.113202e+00    1.046738e+03    0.000000e+00   -4.224036e+01    4.868602e+02   -7.640512e+00
   2.473027e-02    1.036343e+03    2.104912e+00    1.034459e+03    0.000000e+00   -4.222021e+01    4.830181e+02   -7.610981e+00
   2.491197e-02    1.024197e+03    2.096651e+00    1.022319e+03    0.000000e+00   -4.219977e+01    4.792043e+02   -7.581551e+00
   2.509501e-02    1.012188e+03    2.088418e+00    1.010315e+03    0.000000e+00   -4.217906e+01    4.754189e+02   -7.552223e+00
   2.527939e-02    1.000315e+03    2.080214e+00    9.984467e+02    0.000000e+00   -4.215806e+01    4.716614e+02   -7.522998e+00
   2.546513e-02    9.885751e+02    2.072038e+00    9.867123e+02    0.000000e+00   -4.213679e+01    4.679319e+02   -7.493873e+00
   2.565223e-02    9.769677e+02    2.063891e+00    9.751103e+02    0.000000e+00   -4.211525e+01    4.642299e+02   -7.464848e+00
   2.584071e-02    9.654911e+02    2.055772e+00    9.636393e+02    0.000000e+00   -4.209343e+01    4.605554e+02   -7.435922e+00
   2.603057e-02    9.541439e+02    2.047681e+00    9.522978e+02    0.000000e+00   -4.207133e+01    4.569081e+02   -7.407096e+00
   2.622183e-02    9.429247e+02    2.039618e+00    9.410843e+02    0.000000e+00   -4.204896e+01    4.532878e+02   -7.378370e+00
   2.641449e-02    9.318327e+02    2.031582e+00    9.299976e+02    0.000000e+00   -4.202632e+01    4.496944e+02   -7.349743e+00
   2.660857e-02    9.208660e+02    2.023575e+00    9.190361e+02    0.000000e+00   -4.200341e+01    4.461276e+02   -7.321215e+00
   2.680407e-02    9.100230e+02    2.015595e+00    9.081984e+02    0.000000e+00   -4.198022e+01    4.425873e+02   -7.292786e+00
   2.700101e-02    8.993024e+02    2.007643e+00    8.974833e+02    0.000000e+00   -4.195677e+01    4.390733e+02   -7.264453e+00
   2.719940e-02    8.887029e+02    1.999718e+00    8.868893e+02    0.000000e+00   -4.193304e+01    4.355853e+02   -7.236218e+00
   2.739925e-02    8.782231e+02    1.991821e+00    8.764152e+02    0.000000e+00   -4.190905e+01    4.321232e+02   -7.208080e+00
   2.760056e-02    8.678617e+02    1.983950e+00    8.660596e+02    0.000000e+00   -4.188478e+01    4.286868e+02   -7.180039e+00
   2.780335e-02    8.576180e+02    1.976107e+00    8.558211e+02    0.000000e+00   -4.186025e+01    4.252759e+02   -7.152095e+00
   2.800764e-02    8.474902e+02    1.968292e+00    8.456986e+02    0.000000e+00   -4.183546e+01    4.218904e+02   -7.124247e+00
   2.821342e-02    8.374769e+02    1.960503e+00    8.356907e+02    0.000000e+00   -4.181039e+01    4.185299e+02   -7.096495e+00
   2.842071e-02    8.275769e+02    1.952741e+00    8.257961e+02    0.000000e+00   -4.178506e+01    4.151945e+02   -7.068838e+00
   2.862953e-02    8.177889e+02    1.945005e+00    8.160136e+02    0.000000e+00   -4.175947e+01    4.118838e+02   -7.041276e+00
   2.883988e-02    8.081117e+02    1.937297e+00    8.063420e+02    0.000000e+00   -4.173361e+01    4.085977e+02   -7.013808e+00
   2.905178e-02    7.985441e+02    1.929615e+00    7.967801e+02    0.000000e+00   -4.170749e+01    4.053360e+02   -6.986435e+00
   2.926524e-02    7.890849e+02    1.921959e+00    7.873266e+02    0.000000e+00   -4.168110e+01    4.020986e+02   -6.959155e+00
   2.948026e-02    7.797333e+02    1.914330e+00    7.779803e+02    0.000000e+00   -4.165446e+01    3.988852e+02   -6.931970e+00
   2.969686e-02    7.704878e+02    1.906727e+00    7.687400e+02    0.000000e+00   -4.162755e+01    3.956958e+02   -6.904879e+00
   2.991506e-02    7.613470e+02    1.899151e+00    7.596047e+02    0.000000e+00   -4.160038e+01    3.925300e+02   -6.877880e+00
   3.013486e-02    7.523099e+02    1.891600e+00    7.505730e+02    0.000000e+00   -4.157295e+01    3.893878e+02   -6.850973e+00
   3.035627e-02    7.433753e+02    1.884075e+00    7.416439e+02    0.000000e+00   -4.154526e+01    3.862690e+02   -6.824159e+00
   3.057931e-02    7.345421e+02    1.876577e+00    7.328163e+02    0.000000e+00   -4.151731e+01    3.831734e+02   -6.797436e+00
   3.080399e-02    7.258092e+02    1.869104e+00    7.240889e+02    0.000000e+00   -4.148911e+01    3.801008e+02   -6.770805e+00
   3.103032e-02    7.171754e+02    1.861657e+00    7.154608e+02    0.000000e+00   -4.146065e+01    3.770511e+02   -6.744265e+00
   3.125831e-02    7.086400e+02    1.854235e+00    7.069308e+02    0.000000e+00   -4.143193e+01    3.740241e+02   -6.717817e+00
   3.148798e-02    7.002017e+02    1.846839e+00    6.984978e+02    0.000000e+00   -4.140295e+01    3.710197e+02   -6.691460e+00
   3.171933e-02    6.918593e+02    1.839468e+00    6.901607e+02    0.000000e+00   -4.137372e+01    3.680376e+02   -6.665192e+00
   3.195239e-02    6.836117e+02    1.832123e+00    6.819186e+02    0.000000e+00   -4.134423e+01    3.650778e+02   -6.639015e+00
   3.218715e-02    6.754579e+02    1.824803e+00    6.737703e+02    0.000000e+00   -4.131449e+01    3.621400e+02   -6.612927e+00
   3.242365e-02    6.673969e+02    1.817508e+00    6.657147e+02    0.000000e+00   -4.128450e+01    3.592241e+02   -6.586928e+00
   3.266188e-02    6.594277e+02    1.810238e+00    6.577510e+02    0.000000e+00   -4.125425e+01    3.563300e+02   -6.561018e+00
   3.290186e-02    6.515491e+02    1.802993e+00    6.498780e+02    0.000000e+00   -4.122375e+01    3.534574e+02   -6.535196e+00
   3.314360e-02    6.437603e+02    1.795773e+00    6.420948e+02    0.000000e+00   -4.119300e+01    3.506063e+02   -6.509463e+00
   3.338712e-02    6.360603e+02    1.788578e+00    6.344003e+02    0.000000e+00   -4.116200e+01    3.477764e+02   -6.483817e+00
   3.363243e-02    6.284483e+02    1.781408e+00    6.267936e+02    0.000000e+00   -4.113074e+01    3.449677e+02   -6.458260e+00
   3.387954e-02    6.209231e+02    1.774262e+00    6.192737e+02    0.000000e+00   -4.109924e+01    3.421799e+02   -6.432791e+00
   3.412846e-02    6.134837e+02    1.767140e+00    6.118397e+02    0.000000e+00   -4.106748e+01    3.394129e+02   -6.407408e+00
   3.437922e-02    6.061291e+02    1.760043e+00    6.044905e+02    0.000000e+00   -4.103548e+01    3.366666e+02   -6.382112e+00
   3.463182e-02    5.988585e+02    1.752971e+00    5.972253e+02    0.000000e+00   -4.100323e+01    3.339408e+02   -6.356902e+00
   3.488627e-02    5.916709e+02    1.745922e+00    5.900431e+02    0.000000e+00   -4.097073e+01    3.312354e+02   -6.331778e+00
   3.514259e-02    5.845654e+02    1.738898e+00    5.829431e+02    0.000000e+00   -4.093799e+01    3.285501e+02   -6.306740e+00
   3.540080e-02    5.775411e+02    1.731898e+00    5.759242e+02    0.000000e+00   -4.090499e+01    3.258850e+02   -6.281787e+00
   3.566091e-02    5.705970e+02    1.724922e+00    5.689856e+02    0.000000e+00   -4.087175e+01    3.232398e+02   -6.256919e+00
   3.592292e-02    5.637323e+02    1.717969e+00    5.621264e+02    0.000000e+00   -4.083827e+01    3.206143e+02   -6.232136e+00
   3.618686e-02    5.569462e+02    1.711041e+00    5.553458e+02    0.000000e+00   -4.080454e+01    3.180085e+02   -6.207437e+00
   3.645274e-02    5.502378e+02    1.704136e+00    5.486428e+02    0.000000e+00   -4.077057e+01    3.154222e+02   -6.182823e+00
   3.672057e-02    5.436063e+02    1.697255e+00    5.420165e+02    0.000000e+00   -4.073635e+01    3.128553e+02   -6.158293e+00
   3.699037e-02    5.370507e+02    1.690397e+00    5.354663e+02    0.000000e+00   -4.070189e+01    3.103076e+02   -6.133847e+00
   3.726216e-02    5.305702e+02    1.683563e+00    5.289911e+02    0.000000e+00   -4.066718e+01    3.077789e+02   -6.109484e+00
   3.753594e-02    5.241639e+02    1.676752e+00    5.225902e+02    0.000000e+00   -4.063224e+01    3.052692e+02   -6.085204e+00
   3.781173e-02    5.178311e+02    1.669965e+00    5.162627e+02    0.000000e+00   -4.059705e+01    3.027783e+02   -6.061006e+00
   3.808955e-02    5.115709e+02    1.663201e+00    5.100079e+02    0.000000e+00   -4.056162e+01    3.003060e+02   -6.036891e+00
   3.836941e-02    5.053825e+02    1.656460e+00    5.038248e+02    0.000000e+00   -4.052595e+01    2.978523e+02   -6.012858e+00
   3.865132e-02    4.992652e+02    1.649741e+00    4.977128e+02    0.000000e+00   -4.049004e+01    2.954170e+02   -5.988906e+00
   3.893531e-02    4.932180e+02    1.643046e+00    4.916711e+02    0.000000e+00   -4.045389e+01    2.930000e+02   -5.965036e+00
   3.922138e-02    4.872403e+02    1.636374e+00    4.856987e+02    0.000000e+00   -4.041750e+01    2.906010e+02   -5.941247e+00
   3.950956e-02    4.813313e+02    1.629724e+00    4.797951e+02    0.000000e+00   -4.038087e+01    2.882201e+02   -5.917539e+00
   3.979985e-02    4.754903e+02    1.623098e+00    4.739594e+02    0.000000e+00   -4.034400e+01    2.858571e+02   -5.893912e+00
   4.009227e-02    4.697163e+02    1.616494e+00    4.681908e+02    0.000000e+00   -4.030690e+01    2.835118e+02   -5.870365e+00
   4.038685e-02    4.640088e+02    1.609912e+00    4.624887e+02    0.000000e+00   -4.026956e+01    2.811841e+02   -5.846897e+00
   4.068359e-02    4.583670e+02    1.603353e+00    4.568523e+02    0.000000e+00   -4.023198e+01    2.788739e+02   -5.823510e+00
   4.098251e-02    4.527902e+02    1.596816e+00    4.512808e+02    0.000000e+00   -4.019417e+01    2.765810e+02   -5.800202e+00
   4.128362e-02    4.472777e+02    1.590301e+00    4.457735e+02    0.000000e+00   -4.015612e+01    2.743054e+02   -5.776973e+00
   4.158695e-02    4.418287e+02    1.583809e+00    4.403297e+02    0.000000e+00   -4.011783e+01    2.720469e+02   -5.753824e+00
   4.189250e-02    4.364425e+02    1.577339e+00    4.349488e+02    0.000000e+00   -4.007931e+01    2.698054e+02   -5.730753e+00
   4.220030e-02    4.311184e+02    1.570891e+00    4.296299e+02    0.000000e+00   -4.004056e+01    2.675808e+02   -5.707760e+00
   4.251037e-02    4.258557e+02    1.564465e+00    4.243725e+02    0.000000e+00   -4.000157e+01    2.653728e+02   -5.684845e+00
   4.282271e-02    4.206538e+02    1.558061e+00    4.191758e+02    0.000000e+00   -3.996235e+01    2.631816e+02   -5.662008e+00
   4.313734e-02    4.155120e+02    1.551678e+00    4.140392e+02    0.000000e+00   -3.992290e+01    2.610068e+02   -5.639248e+00
   4.345429e-02    4.104295e+02    1.545318e+00    4.089619e+02    0.000000e+00   -3.988321e+01    2.588484e+02   -5.616566e+00
   4.377357e-02    4.054057e+02    1.538979e+00    4.039434e+02    0.000000e+00   -3.984329e+01    2.567062e+02   -5.593960e+00
   4.409519e-02    4.004401e+02    1.532661e+00    3.989830e+02    0.000000e+00   -3.980315e+01    2.545803e+02   -5.571431e+00
   4.441917e-02    3.955319e+02    1.526365e+00    3.940800e+02    0.000000e+00   -3.976277e+01    2.524703e+02   -5.548978e+00
   4.474554e-02    3.906804e+02    1.520091e+00    3.892338e+02    0.000000e+00   -3.972216e+01    2.503763e+02   -5.526602e+00
   4.507430e-02    3.858852e+02    1.513838e+00    3.844437e+02    0.000000e+00   -3.968132e+01    2.482980e+02   -5.504301e+00
   4.540548e-02    3.811455e+02    1.507606e+00    3.797092e+02    0.000000e+00   -3.964025e+01    2.462355e+02   -5.482076e+00
   4.573909e-02    3.764607e+02    1.501395e+00    3.750296e+02    0.000000e+00   -3.959895e+01    2.441885e+02   -5.459925e+00
   4.607516e-02    3.718302e+02    1.495206e+00    3.704043e+02    0.000000e+00   -3.955742e+01    2.421569e+02   -5.437850e+00
   4.641369e-02    3.672534e+02    1.489037e+00    3.658326e+02    0.000000e+00   -3.951567e+01    2.401408e+02   -5.415850e+00
   4.675471e-02    3.627297e+02    1.482890e+00    3.613141e+02    0.000000e+00   -3.947369e+01    2.381398e+02   -5.393924e+00
   4.709824e-02    3.582585e+02    1.476763e+00    3.568481e+02    0.000000e+00   -3.943148e+01    2.361540e+02   -5.372072e+00
   4.744429e-02    3.538392e+02    1.470657e+00    3.524340e+02    0.000000e+00   -3.938904e+01    2.341832e+02   -5.350294e+00
   4.779288e-02    3.494713e+02    1.464572e+00    3.480712e+02    0.000000e+00   -3.934638e+01    2.322273e+02   -5.328590e+00
   4.814403e-02    3.451542e+02    1.458508e+00    3.437592e+02    0.000000e+00   -3.930349e+01    2.302863e+02   -5.306959e+00
   4.849777e-02    3.408873e+02    1.452464e+00    3.394974e+02    0.000000e+00   -3.926038e+01    2.283599e+02   -5.285401e+00
   4.885410e-02    3.366700e+02    1.446441e+00    3.352853e+02    0.000000e+00   -3.921704e+01    2.264481e+02   -5.263916e+00
   4.921305e-02    3.325018e+02    1.440438e+00    3.311222e+02    0.000000e+00   -3.917348e+01    2.245508e+02   -5.242504e+00
   4.957464e-02    3.283822e+02    1.434455e+00    3.270076e+02    0.000000e+00   -3.912969e+01    2.226678e+02   -5.221164e+00
   4.993888e-02    3.243106e+02    1.428493e+00    3.229411e+02    0.000000e+00   -3.908569e+01    2.207992e+02   -5.199896e+00
   5.030580e-02    3.202864e+02    1.422551e+00    3.189220e+02    0.000000e+00   -3.904145e+01    2.189447e+02   -5.178700e+00
   5.067542e-02    3.163092e+02    1.416630e+00    3.149498e+02    0.000000e+00   -3.899700e+01    2.171043e+02   -5.157575e+00
   5.104775e-02    3.123783e+02    1.410728e+00    3.110241e+02    0.000000e+00   -3.895232e+01    2.152779e+02   -5.136522e+00
   5.142282e-02    3.084934e+02    1.404846e+00    3.071442e+02    0.000000e+00   -3.890742e+01    2.134653e+02   -5.115540e+00
   5.180064e-02    3.046539e+02    1.398985e+00    3.033097e+02    0.000000e+00   -3.886230e+01    2.116665e+02   -5.094629e+00
   5.218124e-02    3.008592e+02    1.393143e+00    2.995201e+02    0.000000e+00   -3.881696e+01    2.098814e+02   -5.073788e+00
   5.256464e-02    2.971089e+02    1.387321e+00    2.957748e+02    0.000000e+00   -3.877140e+01    2.081098e+02   -5.053017e+00
   5.295085e-02    2.934024e+02    1.381519e+00    2.920734e+02    0.000000e+00   -3.872562e+01    2.063517e+02   -5.032317e+00
   5.333991e-02    2.897394e+02    1.375736e+00    2.884153e+02    0.000000e+00   -3.867962e+01    2.046070e+02   -5.011686e+00
   5.373182e-02    2.861192e+02    1.369973e+00    2.848002e+02    0.000000e+00   -3.863341e+01    2.028756e+02   -4.991125e+00
   5.412661e-02    2.825415e+02    1.364230e+00    2.812274e+02    0.000000e+00   -3.858697e+01    2.011573e+02   -4.970633e+00
   5.452429e-02    2.790057e+02    1.358506e+00    2.776966e+02    0.000000e+00   -3.854031e+01    1.994522e+02   -4.950211e+00
   5.492491e-02    2.755113e+02    1.352801e+00    2.742073e+02    0.000000e+00   -3.849344e+01    1.977600e+02   -4.929857e+00
   5.532846e-02    2.720580e+02    1.347116e+00    2.707589e+02    0.000000e+00   -3.844635e+01    1.960808e+02   -4.909571e+00
   5.573498e-02    2.686452e+02    1.341450e+00    2.673511e+02    0.000000e+00   -3.839905e+01    1.944143e+02   -4.889354e+00
   5.614449e-02    2.652725e+02    1.335803e+00    2.639834e+02    0.000000e+00   -3.835152e+01    1.927606e+02   -4.869205e+00
   5.655701e-02    2.619395e+02    1.330175e+00    2.606553e+02    0.000000e+00   -3.830379e+01    1.911195e+02   -4.849125e+00
   5.697255e-02    2.586457e+02    1.324566e+00    2.573664e+02    0.000000e+00   -3.825583e+01    1.894909e+02   -4.829111e+00
   5.739115e-02    2.553907e+02    1.318977e+00    2.541162e+02    0.000000e+00   -3.820766e+01    1.878748e+02   -4.809166e+00
   5.781283e-02    2.521740e+02    1.313406e+00    2.509044e+02    0.000000e+00   -3.815928e+01    1.862710e+02   -4.789287e+00
   5.823760e-02    2.489952e+02    1.307854e+00    2.477304e+02    0.000000e+00   -3.811068e+01    1.846795e+02   -4.769475e+00
   5.866550e-02    2.458538e+02    1.302321e+00    2.445939e+02    0.000000e+00   -3.806187e+01    1.831001e+02   -4.749730e+00
   5.909654e-02    2.427495e+02    1.296806e+00    2.414945e+02    0.000000e+00   -3.801285e+01    1.815329e+02   -4.730052e+00
   5.953074e-02    2.396818e+02    1.291310e+00    2.384316e+02    0.000000e+00   -3.796361e+01    1.799776e+02   -4.710439e+00
   5.996814e-02    2.366503e+02    1.285833e+00    2.354050e+02    0.000000e+00   -3.791417e+01    1.784343e+02   -4.690893e+00
   6.040875e-02    2.336547e+02    1.280375e+00    2.324142e+02    0.000000e+00   -3.786451e+01    1.769028e+02   -4.671412e+00
   6.085260e-02    2.306944e+02    1.274934e+00    2.294588e+02    0.000000e+00   -3.781464e+01    1.753830e+02   -4.651997e+00
   6.129971e-02    2.277692e+02    1.269513e+00    2.265383e+02    0.000000e+00   -3.776455e+01    1.738749e+02   -4.632647e+00
