# Model replicates Starrett & Saumon 2014 'A simple method for determining the ionic structure of warm dense matter'
# Convergence: Err(φ)=5.441e-11, Err(n_e)=2.529e-11, Err(IET)=9.668e-13, Q_net=2.671e-09
# {"name":"CS2014_Al", "Z":13, "Zstar":4.829064501629094, "A":26.981539,  "μ[AU]": -1.4662224745e+00, "Te[AU]": 1.102e+00, "Ti[AU]": 1.102e+00, "rs[AU]": 2.990e+00 }
   r[AU]           ne_full[AU]     n_ion[AU]       ne_ext[AU]      ne_PA[AU]       ne_scr[AU]      
   1.000000e-04    4.480957e+06    4.481031e+06    1.885205e-02    4.480957e+06   -7.455034e+01
   1.006327e-04    4.438766e+06    4.438839e+06    1.885205e-02    4.438766e+06   -7.292292e+01
   1.012694e-04    4.396971e+06    4.397043e+06    1.885205e-02    4.396971e+06   -7.197223e+01
   1.019102e-04    4.355570e+06    4.355641e+06    1.885205e-02    4.355570e+06   -7.169349e+01
   1.025550e-04    4.314557e+06    4.314629e+06    1.885205e-02    4.314557e+06   -7.206677e+01
   1.032039e-04    4.273930e+06    4.274003e+06    1.885205e-02    4.273930e+06   -7.307448e+01
   1.038569e-04    4.233687e+06    4.233760e+06    1.885205e-02    4.233687e+06   -7.338541e+01
   1.045140e-04    4.193824e+06    4.193895e+06    1.885205e-02    4.193824e+06   -7.174797e+01
   1.051753e-04    4.154335e+06    4.154406e+06    1.885205e-02    4.154335e+06   -7.076267e+01
   1.058408e-04    4.115218e+06    4.115289e+06    1.885205e-02    4.115218e+06   -7.041590e+01
   1.065104e-04    4.076469e+06    4.076540e+06    1.885205e-02    4.076469e+06   -7.076417e+01
   1.071843e-04    4.038083e+06    4.038155e+06    1.885205e-02    4.038083e+06   -7.171535e+01
   1.078625e-04    4.000060e+06    4.000132e+06    1.885205e-02    4.000060e+06   -7.184813e+01
   1.085450e-04    3.962397e+06    3.962467e+06    1.885205e-02    3.962397e+06   -7.054308e+01
   1.092318e-04    3.925087e+06    3.925157e+06    1.885205e-02    3.925087e+06   -6.957279e+01
   1.099229e-04    3.888128e+06    3.888198e+06    1.885205e-02    3.888128e+06   -6.924034e+01
   1.106184e-04    3.851517e+06    3.851586e+06    1.885205e-02    3.851517e+06   -6.948745e+01
   1.113183e-04    3.815250e+06    3.815320e+06    1.885205e-02    3.815250e+06   -7.029511e+01
   1.120226e-04    3.779324e+06    3.779395e+06    1.885205e-02    3.779324e+06   -7.094954e+01
   1.127314e-04    3.743739e+06    3.743808e+06    1.885205e-02    3.743739e+06   -6.940768e+01
   1.134447e-04    3.708488e+06    3.708556e+06    1.885205e-02    3.708488e+06   -6.844091e+01
   1.141625e-04    3.673568e+06    3.673636e+06    1.885205e-02    3.673568e+06   -6.804124e+01
   1.148848e-04    3.638977e+06    3.639045e+06    1.885205e-02    3.638977e+06   -6.819461e+01
   1.156117e-04    3.604711e+06    3.604779e+06    1.885205e-02    3.604711e+06   -6.892705e+01
   1.163432e-04    3.570767e+06    3.570837e+06    1.885205e-02    3.570767e+06   -6.943521e+01
   1.170794e-04    3.537145e+06    3.537213e+06    1.885205e-02    3.537145e+06   -6.827419e+01
   1.178201e-04    3.503839e+06    3.503906e+06    1.885205e-02    3.503839e+06   -6.728057e+01
   1.185656e-04    3.470846e+06    3.470913e+06    1.885205e-02    3.470846e+06   -6.683620e+01
   1.193158e-04    3.438164e+06    3.438231e+06    1.885205e-02    3.438164e+06   -6.697669e+01
   1.200707e-04    3.405788e+06    3.405856e+06    1.885205e-02    3.405788e+06   -6.762305e+01
   1.208304e-04    3.373718e+06    3.373786e+06    1.885205e-02    3.373717e+06   -6.813563e+01
   1.215950e-04    3.341950e+06    3.342017e+06    1.885205e-02    3.341950e+06   -6.710943e+01
   1.223643e-04    3.310482e+06    3.310548e+06    1.885205e-02    3.310482e+06   -6.614762e+01
   1.231385e-04    3.279310e+06    3.279376e+06    1.885205e-02    3.279310e+06   -6.571590e+01
   1.239177e-04    3.248430e+06    3.248496e+06    1.885205e-02    3.248430e+06   -6.577563e+01
   1.247017e-04    3.217841e+06    3.217908e+06    1.885205e-02    3.217841e+06   -6.631125e+01
   1.254907e-04    3.187540e+06    3.187607e+06    1.885205e-02    3.187540e+06   -6.722898e+01
   1.262847e-04    3.157526e+06    3.157592e+06    1.885205e-02    3.157526e+06   -6.601423e+01
   1.270838e-04    3.127794e+06    3.127859e+06    1.885205e-02    3.127794e+06   -6.505663e+01
   1.278879e-04    3.098341e+06    3.098406e+06    1.885205e-02    3.098341e+06   -6.457728e+01
   1.286970e-04    3.069166e+06    3.069230e+06    1.885205e-02    3.069166e+06   -6.456257e+01
   1.295113e-04    3.040264e+06    3.040330e+06    1.885205e-02    3.040264e+06   -6.505023e+01
   1.303308e-04    3.011635e+06    3.011701e+06    1.885205e-02    3.011635e+06   -6.558732e+01
   1.311554e-04    2.983277e+06    2.983341e+06    1.885205e-02    2.983277e+06   -6.492048e+01
   1.319852e-04    2.955185e+06    2.955249e+06    1.885205e-02    2.955185e+06   -6.394258e+01
   1.328203e-04    2.927358e+06    2.927421e+06    1.885205e-02    2.927358e+06   -6.343766e+01
   1.336607e-04    2.899792e+06    2.899856e+06    1.885205e-02    2.899792e+06   -6.342236e+01
   1.345064e-04    2.872486e+06    2.872549e+06    1.885205e-02    2.872486e+06   -6.383282e+01
   1.353575e-04    2.845436e+06    2.845500e+06    1.885205e-02    2.845436e+06   -6.464030e+01
   1.362139e-04    2.818642e+06    2.818706e+06    1.885205e-02    2.818642e+06   -6.380276e+01
   1.370758e-04    2.792101e+06    2.792163e+06    1.885205e-02    2.792100e+06   -6.286346e+01
   1.379431e-04    2.765809e+06    2.765871e+06    1.885205e-02    2.765809e+06   -6.236653e+01
   1.388159e-04    2.739764e+06    2.739826e+06    1.885205e-02    2.739764e+06   -6.228642e+01
   1.396942e-04    2.713964e+06    2.714026e+06    1.885205e-02    2.713964e+06   -6.261023e+01
   1.405780e-04    2.688406e+06    2.688470e+06    1.885205e-02    2.688406e+06   -6.326802e+01
   1.414675e-04    2.663091e+06    2.663154e+06    1.885205e-02    2.663091e+06   -6.275098e+01
   1.423626e-04    2.638014e+06    2.638076e+06    1.885205e-02    2.638014e+06   -6.181446e+01
   1.432634e-04    2.613173e+06    2.613234e+06    1.885205e-02    2.613173e+06   -6.128191e+01
   1.441698e-04    2.588565e+06    2.588626e+06    1.885205e-02    2.588565e+06   -6.114309e+01
   1.450820e-04    2.564189e+06    2.564250e+06    1.885205e-02    2.564189e+06   -6.143601e+01
   1.460000e-04    2.540041e+06    2.540103e+06    1.885205e-02    2.540041e+06   -6.201519e+01
   1.469237e-04    2.516122e+06    2.516184e+06    1.885205e-02    2.516122e+06   -6.169653e+01
   1.478534e-04    2.492429e+06    2.492490e+06    1.885205e-02    2.492429e+06   -6.074796e+01
   1.487889e-04    2.468959e+06    2.469019e+06    1.885205e-02    2.468959e+06   -6.020419e+01
   1.497303e-04    2.445709e+06    2.445769e+06    1.885205e-02    2.445709e+06   -6.007325e+01
   1.506777e-04    2.422677e+06    2.422738e+06    1.885205e-02    2.422677e+06   -6.030049e+01
   1.516310e-04    2.399862e+06    2.399923e+06    1.885205e-02    2.399862e+06   -6.087987e+01
   1.525904e-04    2.377263e+06    2.377324e+06    1.885205e-02    2.377263e+06   -6.060541e+01
   1.535559e-04    2.354877e+06    2.354937e+06    1.885205e-02    2.354877e+06   -5.971882e+01
   1.545275e-04    2.332702e+06    2.332761e+06    1.885205e-02    2.332702e+06   -5.918423e+01
   1.555052e-04    2.310735e+06    2.310794e+06    1.885205e-02    2.310735e+06   -5.899980e+01
   1.564891e-04    2.288974e+06    2.289033e+06    1.885205e-02    2.288974e+06   -5.916104e+01
   1.574792e-04    2.267418e+06    2.267478e+06    1.885205e-02    2.267418e+06   -5.963635e+01
   1.584757e-04    2.246065e+06    2.246125e+06    1.885205e-02    2.246065e+06   -5.961501e+01
   1.594784e-04    2.224915e+06    2.224973e+06    1.885205e-02    2.224915e+06   -5.871002e+01
   1.604874e-04    2.203963e+06    2.204021e+06    1.885205e-02    2.203963e+06   -5.814881e+01
   1.615028e-04    2.183208e+06    2.183266e+06    1.885205e-02    2.183208e+06   -5.792130e+01
   1.625247e-04    2.162648e+06    2.162706e+06    1.885205e-02    2.162648e+06   -5.806367e+01
   1.635530e-04    2.142281e+06    2.142340e+06    1.885205e-02    2.142281e+06   -5.852409e+01
   1.645879e-04    2.122107e+06    2.122165e+06    1.885205e-02    2.122107e+06   -5.847125e+01
   1.656293e-04    2.102123e+06    2.102181e+06    1.885205e-02    2.102123e+06   -5.769116e+01
   1.666772e-04    2.082327e+06    2.082384e+06    1.885205e-02    2.082327e+06   -5.712899e+01
   1.677318e-04    2.062717e+06    2.062774e+06    1.885205e-02    2.062717e+06   -5.690974e+01
   1.687931e-04    2.043292e+06    2.043349e+06    1.885205e-02    2.043292e+06   -5.699661e+01
   1.698611e-04    2.024049e+06    2.024106e+06    1.885205e-02    2.024049e+06   -5.738060e+01
   1.709358e-04    2.004987e+06    2.005045e+06    1.885205e-02    2.004987e+06   -5.756439e+01
   1.720174e-04    1.986106e+06    1.986163e+06    1.885205e-02    1.986106e+06   -5.670873e+01
   1.731058e-04    1.967403e+06    1.967459e+06    1.885205e-02    1.967403e+06   -5.615454e+01
   1.742010e-04    1.948875e+06    1.948931e+06    1.885205e-02    1.948875e+06   -5.589653e+01
   1.753032e-04    1.930521e+06    1.930577e+06    1.885205e-02    1.930521e+06   -5.593001e+01
   1.764124e-04    1.912340e+06    1.912397e+06    1.885205e-02    1.912340e+06   -5.626435e+01
   1.775286e-04    1.894330e+06    1.894387e+06    1.885205e-02    1.894330e+06   -5.647678e+01
   1.786519e-04    1.876491e+06    1.876547e+06    1.885205e-02    1.876491e+06   -5.574250e+01
   1.797822e-04    1.858820e+06    1.858875e+06    1.885205e-02    1.858820e+06   -5.516877e+01
   1.809198e-04    1.841314e+06    1.841369e+06    1.885205e-02    1.841314e+06   -5.487960e+01
   1.820645e-04    1.823973e+06    1.824028e+06    1.885205e-02    1.823973e+06   -5.490512e+01
   1.832164e-04    1.806795e+06    1.806850e+06    1.885205e-02    1.806795e+06   -5.519631e+01
   1.843757e-04    1.789779e+06    1.789834e+06    1.885205e-02    1.789779e+06   -5.536696e+01
   1.855423e-04    1.772924e+06    1.772979e+06    1.885205e-02    1.772924e+06   -5.476850e+01
   1.867162e-04    1.756227e+06    1.756282e+06    1.885205e-02    1.756227e+06   -5.420207e+01
   1.878976e-04    1.739688e+06    1.739742e+06    1.885205e-02    1.739688e+06   -5.392191e+01
   1.890865e-04    1.723304e+06    1.723358e+06    1.885205e-02    1.723304e+06   -5.390144e+01
   1.902829e-04    1.707074e+06    1.707128e+06    1.885205e-02    1.707074e+06   -5.413380e+01
   1.914868e-04    1.690996e+06    1.691051e+06    1.885205e-02    1.690996e+06   -5.459577e+01
   1.926984e-04    1.675071e+06    1.675125e+06    1.885205e-02    1.675071e+06   -5.383180e+01
   1.939177e-04    1.659296e+06    1.659349e+06    1.885205e-02    1.659296e+06   -5.327005e+01
   1.951446e-04    1.643669e+06    1.643722e+06    1.885205e-02    1.643669e+06   -5.296128e+01
   1.963793e-04    1.628189e+06    1.628242e+06    1.885205e-02    1.628189e+06   -5.289820e+01
   1.976219e-04    1.612854e+06    1.612907e+06    1.885205e-02    1.612854e+06   -5.309541e+01
   1.988723e-04    1.597664e+06    1.597717e+06    1.885205e-02    1.597664e+06   -5.332517e+01
   2.001306e-04    1.582617e+06    1.582670e+06    1.885205e-02    1.582617e+06   -5.290800e+01
   2.013968e-04    1.567713e+06    1.567765e+06    1.885205e-02    1.567713e+06   -5.233366e+01
   2.026711e-04    1.552948e+06    1.553000e+06    1.885205e-02    1.552948e+06   -5.200334e+01
   2.039535e-04    1.538322e+06    1.538374e+06    1.885205e-02    1.538322e+06   -5.193791e+01
   2.052439e-04    1.523834e+06    1.523886e+06    1.885205e-02    1.523834e+06   -5.209771e+01
   2.065425e-04    1.509481e+06    1.509534e+06    1.885205e-02    1.509481e+06   -5.245030e+01
   2.078494e-04    1.495265e+06    1.495317e+06    1.885205e-02    1.495265e+06   -5.197712e+01
   2.091645e-04    1.481183e+06    1.481234e+06    1.885205e-02    1.481183e+06   -5.141791e+01
   2.104879e-04    1.467233e+06    1.467284e+06    1.885205e-02    1.467233e+06   -5.109545e+01
   2.118197e-04    1.453414e+06    1.453465e+06    1.885205e-02    1.453414e+06   -5.099274e+01
   2.131599e-04    1.439725e+06    1.439776e+06    1.885205e-02    1.439725e+06   -5.110424e+01
   2.145086e-04    1.426165e+06    1.426216e+06    1.885205e-02    1.426165e+06   -5.140626e+01
   2.158659e-04    1.412733e+06    1.412784e+06    1.885205e-02    1.412732e+06   -5.108552e+01
   2.172317e-04    1.399427e+06    1.399478e+06    1.885205e-02    1.399427e+06   -5.052702e+01
   2.186062e-04    1.386247e+06    1.386297e+06    1.885205e-02    1.386247e+06   -5.018496e+01
   2.199893e-04    1.373191e+06    1.373241e+06    1.885205e-02    1.373191e+06   -5.005079e+01
   2.213812e-04    1.360257e+06    1.360307e+06    1.885205e-02    1.360257e+06   -5.013977e+01
   2.227820e-04    1.347445e+06    1.347495e+06    1.885205e-02    1.347445e+06   -5.039330e+01
   2.241916e-04    1.334754e+06    1.334804e+06    1.885205e-02    1.334754e+06   -5.019974e+01
   2.256101e-04    1.322183e+06    1.322232e+06    1.885205e-02    1.322183e+06   -4.963553e+01
   2.270375e-04    1.309730e+06    1.309779e+06    1.885205e-02    1.309730e+06   -4.928073e+01
   2.284741e-04    1.297394e+06    1.297443e+06    1.885205e-02    1.297394e+06   -4.914687e+01
   2.299197e-04    1.285174e+06    1.285223e+06    1.885205e-02    1.285174e+06   -4.920411e+01
   2.313744e-04    1.273068e+06    1.273118e+06    1.885205e-02    1.273068e+06   -4.944764e+01
   2.328384e-04    1.261078e+06    1.261127e+06    1.885205e-02    1.261078e+06   -4.929202e+01
   2.343116e-04    1.249200e+06    1.249249e+06    1.885205e-02    1.249200e+06   -4.876661e+01
   2.357941e-04    1.237434e+06    1.237483e+06    1.885205e-02    1.237434e+06   -4.841732e+01
   2.372860e-04    1.225779e+06    1.225827e+06    1.885205e-02    1.225779e+06   -4.825542e+01
   2.387874e-04    1.214233e+06    1.214282e+06    1.885205e-02    1.214233e+06   -4.827432e+01
   2.402982e-04    1.202796e+06    1.202845e+06    1.885205e-02    1.202796e+06   -4.846740e+01
   2.418187e-04    1.191467e+06    1.191515e+06    1.885205e-02    1.191467e+06   -4.846406e+01
   2.433487e-04    1.180245e+06    1.180293e+06    1.885205e-02    1.180245e+06   -4.791816e+01
   2.448884e-04    1.169128e+06    1.169176e+06    1.885205e-02    1.169128e+06   -4.755414e+01
   2.464379e-04    1.158116e+06    1.158163e+06    1.885205e-02    1.158116e+06   -4.736810e+01
   2.479971e-04    1.147207e+06    1.147255e+06    1.885205e-02    1.147207e+06   -4.737249e+01
   2.495663e-04    1.136401e+06    1.136449e+06    1.885205e-02    1.136401e+06   -4.754988e+01
   2.511453e-04    1.125697e+06    1.125744e+06    1.885205e-02    1.125697e+06   -4.751686e+01
   2.527344e-04    1.115094e+06    1.115141e+06    1.885205e-02    1.115094e+06   -4.707050e+01
   2.543335e-04    1.104591e+06    1.104637e+06    1.885205e-02    1.104591e+06   -4.670152e+01
   2.559427e-04    1.094186e+06    1.094233e+06    1.885205e-02    1.094186e+06   -4.651784e+01
   2.575621e-04    1.083879e+06    1.083926e+06    1.885205e-02    1.083879e+06   -4.649551e+01
   2.591917e-04    1.073670e+06    1.073716e+06    1.885205e-02    1.073670e+06   -4.663016e+01
   2.608317e-04    1.063556e+06    1.063603e+06    1.885205e-02    1.063556e+06   -4.674878e+01
   2.624820e-04    1.053538e+06    1.053584e+06    1.885205e-02    1.053538e+06   -4.624370e+01
   2.641428e-04    1.043614e+06    1.043660e+06    1.885205e-02    1.043614e+06   -4.588067e+01
   2.658141e-04    1.033784e+06    1.033830e+06    1.885205e-02    1.033784e+06   -4.567584e+01
   2.674960e-04    1.024046e+06    1.024092e+06    1.885205e-02    1.024046e+06   -4.562358e+01
   2.691885e-04    1.014399e+06    1.014445e+06    1.885205e-02    1.014399e+06   -4.572874e+01
   2.708917e-04    1.004844e+06    1.004890e+06    1.885205e-02    1.004844e+06   -4.582290e+01
   2.726057e-04    9.953786e+05    9.954240e+05    1.885205e-02    9.953786e+05   -4.543577e+01
   2.743305e-04    9.860025e+05    9.860476e+05    1.885205e-02    9.860025e+05   -4.506215e+01
   2.760662e-04    9.767146e+05    9.767594e+05    1.885205e-02    9.767146e+05   -4.483807e+01
   2.778130e-04    9.675139e+05    9.675587e+05    1.885205e-02    9.675139e+05   -4.477896e+01
   2.795707e-04    9.583997e+05    9.584446e+05    1.885205e-02    9.583997e+05   -4.486393e+01
   2.813396e-04    9.493713e+05    9.494163e+05    1.885205e-02    9.493713e+05   -4.496450e+01
   2.831197e-04    9.404284e+05    9.404730e+05    1.885205e-02    9.404284e+05   -4.462968e+01
   2.849111e-04    9.315697e+05    9.316139e+05    1.885205e-02    9.315696e+05   -4.425701e+01
   2.867138e-04    9.227942e+05    9.228382e+05    1.885205e-02    9.227942e+05   -4.403663e+01
   2.885279e-04    9.141012e+05    9.141452e+05    1.885205e-02    9.141012e+05   -4.395468e+01
   2.903534e-04    9.054900e+05    9.055339e+05    1.885205e-02    9.054899e+05   -4.400511e+01
   2.921906e-04    8.969596e+05    8.970038e+05    1.885205e-02    8.969596e+05   -4.418518e+01
   2.940393e-04    8.885102e+05    8.885540e+05    1.885205e-02    8.885101e+05   -4.384586e+01
   2.958998e-04    8.801403e+05    8.801837e+05    1.885205e-02    8.801402e+05   -4.347692e+01
   2.977720e-04    8.718490e+05    8.718923e+05    1.885205e-02    8.718490e+05   -4.324187e+01
   2.996561e-04    8.636358e+05    8.636789e+05    1.885205e-02    8.636357e+05   -4.313575e+01
   3.015520e-04    8.554997e+05    8.555428e+05    1.885205e-02    8.554996e+05   -4.316525e+01
   3.034600e-04    8.474401e+05    8.474833e+05    1.885205e-02    8.474401e+05   -4.326856e+01
   3.053801e-04    8.394567e+05    8.394998e+05    1.885205e-02    8.394567e+05   -4.307652e+01
   3.073123e-04    8.315487e+05    8.315914e+05    1.885205e-02    8.315487e+05   -4.270104e+01
   3.092567e-04    8.237150e+05    8.237574e+05    1.885205e-02    8.237150e+05   -4.245104e+01
   3.112134e-04    8.159549e+05    8.159972e+05    1.885205e-02    8.159549e+05   -4.234330e+01
   3.131825e-04    8.082678e+05    8.083101e+05    1.885205e-02    8.082677e+05   -4.235530e+01
   3.151641e-04    8.006529e+05    8.006953e+05    1.885205e-02    8.006529e+05   -4.248222e+01
   3.171582e-04    7.931100e+05    7.931523e+05    1.885205e-02    7.931100e+05   -4.229623e+01
   3.191649e-04    7.856383e+05    7.856803e+05    1.885205e-02    7.856383e+05   -4.193787e+01
   3.211844e-04    7.782369e+05    7.782786e+05    1.885205e-02    7.782369e+05   -4.169446e+01
   3.232166e-04    7.709050e+05    7.709466e+05    1.885205e-02    7.709050e+05   -4.156716e+01
   3.252616e-04    7.636421e+05    7.636836e+05    1.885205e-02    7.636421e+05   -4.155267e+01
   3.273196e-04    7.564474e+05    7.564890e+05    1.885205e-02    7.564474e+05   -4.164723e+01
   3.293906e-04    7.493206e+05    7.493622e+05    1.885205e-02    7.493206e+05   -4.156739e+01
   3.314748e-04    7.422613e+05    7.423024e+05    1.885205e-02    7.422613e+05   -4.119802e+01
   3.335721e-04    7.352683e+05    7.353092e+05    1.885205e-02    7.352682e+05   -4.094266e+01
   3.356826e-04    7.283410e+05    7.283818e+05    1.885205e-02    7.283410e+05   -4.079737e+01
   3.378066e-04    7.214788e+05    7.215196e+05    1.885205e-02    7.214788e+05   -4.076886e+01
   3.399439e-04    7.146811e+05    7.147220e+05    1.885205e-02    7.146811e+05   -4.085027e+01
   3.420948e-04    7.079476e+05    7.079884e+05    1.885205e-02    7.079476e+05   -4.078814e+01
   3.442593e-04    7.012778e+05    7.013182e+05    1.885205e-02    7.012777e+05   -4.046278e+01
   3.464375e-04    6.946706e+05    6.947108e+05    1.885205e-02    6.946706e+05   -4.019770e+01
   3.486295e-04    6.881256e+05    6.881656e+05    1.885205e-02    6.881256e+05   -4.005254e+01
   3.508354e-04    6.816421e+05    6.816821e+05    1.885205e-02    6.816421e+05   -4.000840e+01
   3.530552e-04    6.752195e+05    6.752596e+05    1.885205e-02    6.752195e+05   -4.006231e+01
   3.552890e-04    6.688575e+05    6.688976e+05    1.885205e-02    6.688575e+05   -4.007463e+01
   3.575370e-04    6.625557e+05    6.625954e+05    1.885205e-02    6.625557e+05   -3.974082e+01
